0.759327966,0.051101946,0.050446845,0.691666667,0.067298912,0.932701088,0.066436174,0.000862738,0.148333333,0.616666667,0.64,0.023333333,0.23,0.399393133,0.195348176,0.98906992,0.214457831,0.891566265,0.925301205,0.03373494,0.066666667,0.268333333,0.39,0.436666667,-0.78278686,-0.091627737,-0.874414597,0.028333333,0.103333333,0.096385542,0.387951807,0.563855422,0.631325301,0.040963855,0.14939759,0.055421687,0.238554217,-0.327710843,-0.293975904,5.419921875,0.015930549,4.8159,0.009823846,8.935546875,0.003691162,109
0.901039144,0.236481079,0.234767936,0.666666667,0.262453724,0.737546276,0.260552427,0.001901297,0.156666667,0.493333333,0.513333333,0.02,0.263333333,0.390980892,0.173873319,1.542267906,0.235,0.74,0.77,0.03,0.071666667,0.295,0.39,0.445,-0.772208224,-0.045413751,-0.817621975,0.033333333,0.113333333,0.1075,0.4425,0.585,0.6675,0.05,0.17,0.0575,0.2725,-0.155,-0.1025,3.881835938,0.031336867,5.712890625,0.01506697,7.91015625,0.010668072,109
0.881105192,0.172121104,0.164976541,0.665,0.195346827,0.804653173,0.187238189,0.008108638,0.151666667,0.578333333,0.613333333,0.035,0.246666667,0.378558087,0.172132304,3.331376204,0.228070175,0.869674186,0.922305764,0.052631579,0.07,0.191666667,0.221666667,0.285,-0.790663371,0.098534173,-0.692129198,0.031666667,0.111666667,0.105263158,0.288220551,0.333333333,0.428571429,0.047619048,0.1679198,0.05764411,0.120300752,-0.536340852,-0.493734336,5.712890625,0.017359137,7.91015625,0.01307222,9.741210938,0.004526851,109
0.849716195,0.135928147,0.135301434,0.683333333,0.159968879,0.840031121,0.159231323,0.000737555,0.15,0.62,0.638333333,0.018333333,0.253333333,0.374591283,0.17652953,3.020625483,0.219512195,0.907317073,0.934146342,0.026829268,0.066666667,0.281666667,0.411666667,0.46,-0.823850868,-0.109788569,-0.933639437,0.03,0.103333333,0.097560976,0.412195122,0.602439024,0.673170732,0.043902439,0.151219512,0.053658537,0.26097561,-0.304878049,-0.26097561,5.56640625,0.018040195,7.250976563,0.008889394,9.301757813,0.005884698,109
0.825774314,0.139096678,0.128035339,0.675,0.168443939,0.831556061,0.155048827,0.013395111,0.141666667,0.586666667,0.625,0.038333333,0.246666667,0.342139783,0.171556156,2.781933558,0.209876543,0.869135803,0.925925926,0.056790123,0.066666667,0.268333333,0.386666667,0.433333333,-0.865142953,-0.06185739,-0.927000344,0.028333333,0.103333333,0.098765432,0.397530864,0.572839506,0.641975309,0.041975309,0.15308642,0.056790123,0.244444444,-0.296296296,-0.283950617,5.639648438,0.017666432,7.32421875,0.011703806,9.448242188,0.006145871,109
0.839105043,0.180796921,0.176279301,0.638333333,0.21546399,0.78453601,0.210080135,0.005383855,0.15,0.531666667,0.56,0.028333333,0.256666667,0.385545239,0.178761886,2.308045795,0.234986945,0.832898172,0.877284595,0.044386423,0.066666667,0.28,0.353333333,0.371666667,-0.776811653,-0.066499187,-0.84331084,0.028333333,0.103333333,0.104438642,0.438642298,0.553524804,0.582245431,0.044386423,0.161879896,0.060052219,0.276762402,-0.279373368,-0.295039165,4.1015625,0.032176997,6.005859375,0.017076809,8.129882813,0.007449348,109
0.813600715,0.14765764,0.144740176,0.653333333,0.181486616,0.818513385,0.177900749,0.003585867,0.148333333,0.595,0.621666667,0.026666667,0.245,0.369752217,0.182317113,4.662872846,0.227040816,0.910714286,0.951530612,0.040816327,0.073333333,0.183333333,0.203333333,0.276666667,-0.948654157,0.043111599,-0.905542558,0.031666667,0.118333333,0.112244898,0.280612245,0.31122449,0.423469388,0.048469388,0.181122449,0.06377551,0.099489796,-0.599489796,-0.528061225,5.859375,0.015135336,7.983398438,0.009945316,9.887695313,0.007024258,109
0.843442103,0.155265728,0.152073309,0.696666667,0.184085817,0.815914183,0.180300827,0.003784989,0.158333333,0.623333333,0.655,0.031666667,0.261666667,0.405770692,0.187722824,3.726377482,0.227272727,0.894736842,0.940191388,0.045454545,0.065,0.286666667,0.423333333,0.468333333,-0.668640302,-0.069321483,-0.737961786,0.026666667,0.1,0.093301435,0.411483254,0.607655502,0.672248804,0.038277512,0.14354067,0.055023923,0.267942584,-0.28708134,-0.267942584,5.419921875,0.016354228,7.03125,0.007831456,9.228515625,0.00541026,109
0.759327966,0.051101946,0.050446845,0.691666667,0.067298912,0.932701088,0.066436174,0.000862738,0.148333333,0.616666667,0.64,0.023333333,0.23,0.399393133,0.195348176,0.98906992,0.214457831,0.891566265,0.925301205,0.03373494,0.066666667,0.268333333,0.39,0.436666667,-0.78278686,-0.091627737,-0.874414597,0.028333333,0.103333333,0.096385542,0.387951807,0.563855422,0.631325301,0.040963855,0.14939759,0.055421687,0.238554217,-0.327710843,-0.293975904,5.419921875,0.015930549,7.03125,0.009823846,8.935546875,0.003691162,109
0.901039144,0.236481079,0.234767936,0.666666667,0.262453724,0.737546276,0.260552427,0.001901297,0.156666667,0.493333333,0.513333333,0.02,0.263333333,0.390980892,0.173873319,1.542267906,0.235,0.74,0.77,0.03,0.071666667,0.295,0.39,0.445,-0.772208224,-0.045413751,-0.817621975,0.033333333,0.113333333,0.1075,0.4425,0.585,0.6675,0.05,0.17,0.0575,0.2725,-0.155,-0.1025,3.881835938,0.031336867,5.712890625,0.01506697,7.91015625,0.010668072,109
0.881105192,0.172121104,0.164976541,0.665,0.195346827,0.804653173,0.187238189,0.008108638,0.151666667,0.578333333,0.613333333,0.035,0.246666667,0.378558087,0.172132304,3.331376204,0.228070175,0.869674186,0.922305764,0.052631579,0.07,0.191666667,0.221666667,0.285,-0.790663371,0.098534173,-0.692129198,0.031666667,0.111666667,0.105263158,0.288220551,0.333333333,0.428571429,0.047619048,0.1679198,0.05764411,0.120300752,-0.536340852,-0.493734336,5.712890625,0.017359137,7.91015625,0.01307222,9.741210938,0.004526851,109
0.849716195,0.135928147,0.135301434,0.683333333,0.159968879,0.840031121,0.159231323,0.000737555,0.15,0.62,0.638333333,0.018333333,0.253333333,0.374591283,0.17652953,3.020625483,0.219512195,0.907317073,0.934146342,0.026829268,0.066666667,0.281666667,0.411666667,0.46,-0.823850868,-0.109788569,-0.933639437,0.03,0.103333333,0.097560976,0.412195122,0.602439024,0.673170732,0.043902439,0.151219512,0.053658537,0.26097561,-0.304878049,-0.26097561,5.56640625,0.018040195,7.250976563,0.008889394,9.301757813,0.005884698,109
0.825774314,0.139096678,0.128035339,0.675,0.168443939,0.831556061,0.155048827,0.013395111,0.141666667,0.586666667,0.625,0.038333333,0.246666667,0.342139783,0.171556156,2.781933558,0.209876543,0.869135803,0.925925926,0.056790123,0.066666667,0.268333333,0.386666667,0.433333333,-0.865142953,-0.06185739,-0.927000344,0.028333333,0.103333333,0.098765432,0.397530864,0.572839506,0.641975309,0.041975309,0.15308642,0.056790123,0.244444444,-0.296296296,-0.283950617,5.639648438,0.017666432,7.32421875,0.011703806,9.448242188,0.006145871,109
0.839105043,0.180796921,0.176279301,0.638333333,0.21546399,0.78453601,0.210080135,0.005383855,0.15,0.531666667,0.56,0.028333333,0.256666667,0.385545239,0.178761886,2.308045795,0.234986945,0.832898172,0.877284595,0.044386423,0.066666667,0.28,0.353333333,0.371666667,-0.776811653,-0.066499187,-0.84331084,0.028333333,0.103333333,0.104438642,0.438642298,0.553524804,0.582245431,0.044386423,0.161879896,0.060052219,0.276762402,-0.279373368,-0.295039165,4.1015625,0.032176997,6.005859375,0.017076809,8.129882813,0.007449348,109
0.813600715,0.14765764,0.144740176,0.653333333,0.181486616,0.818513385,0.177900749,0.003585867,0.148333333,0.595,0.621666667,0.026666667,0.245,0.369752217,0.182317113,4.662872846,0.227040816,0.910714286,0.951530612,0.040816327,0.073333333,0.183333333,0.203333333,0.276666667,-0.948654157,0.043111599,-0.905542558,0.031666667,0.118333333,0.112244898,0.280612245,0.31122449,0.423469388,0.048469388,0.181122449,0.06377551,0.099489796,-0.599489796,-0.528061225,5.859375,0.015135336,7.983398438,0.009945316,9.887695313,0.007024258,109
0.843442103,0.155265728,0.152073309,0.696666667,0.184085817,0.815914183,0.180300827,0.003784989,0.158333333,0.623333333,0.655,0.031666667,0.261666667,0.405770692,0.187722824,3.726377482,0.227272727,0.894736842,0.940191388,0.045454545,0.065,0.286666667,0.423333333,0.468333333,-0.668640302,-0.069321483,-0.737961786,0.026666667,0.1,0.093301435,0.411483254,0.607655502,0.672248804,0.038277512,0.14354067,0.055023923,0.267942584,-0.28708134,-0.267942584,5.419921875,0.016354228,7.03125,0.007831456,9.228515625,0.00541026,109
0.759327966,0.051101946,0.050446845,0.691666667,0.067298912,0.932701088,0.066436174,0.000862738,0.148333333,0.616666667,0.64,0.023333333,0.23,0.399393133,0.195348176,0.98906992,0.214457831,0.891566265,0.925301205,0.03373494,0.066666667,0.268333333,0.39,0.436666667,-0.78278686,-0.091627737,-0.874414597,0.028333333,0.103333333,0.096385542,0.387951807,0.563855422,0.631325301,0.040963855,0.14939759,0.055421687,0.238554217,-0.327710843,-0.293975904,5.419921875,0.015930549,7.03125,0.009823846,8.935546875,0.003691162,109
0.901039144,0.236481079,0.234767936,0.666666667,0.262453724,0.737546276,0.260552427,0.001901297,0.156666667,0.493333333,0.513333333,0.02,0.263333333,0.390980892,0.173873319,1.542267906,0.235,0.74,0.77,0.03,0.071666667,0.295,0.39,0.445,-0.772208224,-0.045413751,-0.817621975,0.033333333,0.113333333,0.1075,0.4425,0.585,0.6675,0.05,0.17,0.0575,0.2725,-0.155,-0.1025,3.881835938,0.031336867,5.712890625,0.01506697,7.91015625,0.010668072,109
0.881105192,0.172121104,0.164976541,0.665,0.195346827,0.804653173,0.187238189,0.008108638,0.151666667,0.578333333,0.613333333,0.035,0.246666667,0.378558087,0.172132304,3.331376204,0.228070175,0.869674186,0.922305764,0.052631579,0.07,0.191666667,0.221666667,0.285,-0.790663371,0.098534173,-0.692129198,0.031666667,0.111666667,0.105263158,0.288220551,0.333333333,0.428571429,0.047619048,0.1679198,0.05764411,0.120300752,-0.536340852,-0.493734336,5.712890625,0.017359137,7.91015625,0.01307222,9.741210938,0.004526851,109
0.849716195,0.135928147,0.135301434,0.683333333,0.159968879,0.840031121,0.159231323,0.000737555,0.15,0.62,0.638333333,0.018333333,0.253333333,0.374591283,0.17652953,3.020625483,0.219512195,0.907317073,0.934146342,0.026829268,0.066666667,0.281666667,0.411666667,0.46,-0.823850868,-0.109788569,-0.933639437,0.03,0.103333333,0.097560976,0.412195122,0.602439024,0.673170732,0.043902439,0.151219512,0.053658537,0.26097561,-0.304878049,-0.26097561,5.56640625,0.018040195,7.250976563,0.008889394,9.301757813,0.005884698,109
0.825774314,0.139096678,0.128035339,0.675,0.168443939,0.831556061,0.155048827,0.013395111,0.141666667,0.586666667,0.625,0.038333333,0.246666667,0.342139783,0.171556156,2.781933558,0.209876543,0.869135803,0.925925926,0.056790123,0.066666667,0.268333333,0.386666667,0.433333333,-0.865142953,-0.06185739,-0.927000344,0.028333333,0.103333333,0.098765432,0.397530864,0.572839506,0.641975309,0.041975309,0.15308642,0.056790123,0.244444444,-0.296296296,-0.283950617,5.639648438,0.017666432,7.32421875,0.011703806,9.448242188,0.006145871,109
0.839105043,0.180796921,0.176279301,0.638333333,0.21546399,0.78453601,0.210080135,0.005383855,0.15,0.531666667,0.56,0.028333333,0.256666667,0.385545239,0.178761886,2.308045795,0.234986945,0.832898172,0.877284595,0.044386423,0.066666667,0.28,0.353333333,0.371666667,-0.776811653,-0.066499187,-0.84331084,0.028333333,0.103333333,0.104438642,0.438642298,0.553524804,0.582245431,0.044386423,0.161879896,0.060052219,0.276762402,-0.279373368,-0.295039165,4.1015625,0.032176997,6.005859375,0.017076809,8.129882813,0.007449348,109
0.813600715,0.14765764,0.144740176,0.653333333,0.181486616,0.818513385,0.177900749,0.003585867,0.148333333,0.595,0.621666667,0.026666667,0.245,0.369752217,0.182317113,4.662872846,0.227040816,0.910714286,0.951530612,0.040816327,0.073333333,0.183333333,0.203333333,0.276666667,-0.948654157,0.043111599,-0.905542558,0.031666667,0.118333333,0.112244898,0.280612245,0.31122449,0.423469388,0.048469388,0.181122449,0.06377551,0.099489796,-0.599489796,-0.528061225,5.859375,0.015135336,7.983398438,0.009945316,9.887695313,0.007024258,109
0.843442103,0.155265728,0.152073309,0.696666667,0.184085817,0.815914183,0.180300827,0.003784989,0.158333333,0.623333333,0.655,0.031666667,0.261666667,0.405770692,0.187722824,3.726377482,0.227272727,0.894736842,0.940191388,0.045454545,0.065,0.286666667,0.423333333,0.468333333,-0.668640302,-0.069321483,-0.737961786,0.026666667,0.1,0.093301435,0.411483254,0.607655502,0.672248804,0.038277512,0.14354067,0.055023923,0.267942584,-0.28708134,-0.267942584,5.419921875,0.016354228,7.03125,0.007831456,9.228515625,0.00541026,109
0.732623337,0.144469928,0.139797486,0.868333333,0.197195368,0.802804633,0.190817681,0.006377686,0.163333333,0.735,0.805,0.07,0.31,0.291917363,0.222943121,2.281104128,0.188099808,0.846449136,0.92706334,0.080614203,0.08,0.301666667,0.413333333,0.503333333,-0.862612101,-0.000935531,-0.863547632,0.038333333,0.121666667,0.092130518,0.347408829,0.476007678,0.579654511,0.044145873,0.140115163,0.047984645,0.207293666,-0.370441459,-0.347408829,2.966308594,0.051529103,4.357910156,0.018226313,5.676269531,0.011937571,87
0.84423869,0.13650728,0.136328972,0.795,0.161692756,0.838307244,0.16148155,0.000211206,0.166666667,0.735,0.748333333,0.013333333,0.301666667,0.335676122,0.197416523,2.925156008,0.209643606,0.924528302,0.94129979,0.016771488,0.073333333,0.316666667,0.436666667,0.551666667,-0.748928102,-0.008931665,-0.757859766,0.033333333,0.115,0.092243187,0.398322851,0.549266247,0.693920335,0.041928721,0.144654088,0.050314465,0.253668763,-0.375262055,-0.247379455,4.760742188,0.019983324,6.225585938,0.010813584,7.836914063,0.004922472,87
0.847105339,0.118150577,0.117444386,0.858333333,0.139475661,0.860524339,0.138642008,0.000833652,0.168333333,0.728333333,0.77,0.041666667,0.288333333,0.343648307,0.19871594,1.337553701,0.196116505,0.848543689,0.897087379,0.048543689,0.073333333,0.318333333,0.431666667,0.538333333,-0.733932069,-0.027179058,-0.761111127,0.033333333,0.113333333,0.085436893,0.370873786,0.502912621,0.627184466,0.038834951,0.132038835,0.046601942,0.238834952,-0.345631068,-0.269902913,4.431152344,0.018554433,5.676269531,0.013304096,7.104492188,0.005570674,87
0.876596712,0.146112082,0.145757506,0.81,0.166681075,0.833318925,0.166276583,0.000404492,0.168333333,0.745,0.761666667,0.016666667,0.298333333,0.328923864,0.192030532,3.0230086,0.20781893,0.919753086,0.940329218,0.020576132,0.073333333,0.223333333,0.233333333,0.321666667,-0.73644128,0.004015467,-0.732425813,0.033333333,0.115,0.090534979,0.275720165,0.288065844,0.397119342,0.041152263,0.141975309,0.049382716,0.133744856,-0.631687243,-0.543209877,4.6875,0.022158872,6.079101563,0.013414395,7.543945313,0.005497795,87
0.856307394,0.116461557,0.115739968,0.808333333,0.13600438,0.86399562,0.135161706,0.000842675,0.17,0.736666667,0.76,0.023333333,0.281666667,0.352323069,0.198526839,2.409549445,0.210309278,0.911340206,0.940206186,0.028865979,0.081666667,0.225,0.255,0.321666667,-0.820962455,0.04544556,-0.775516895,0.043333333,0.121666667,0.101030928,0.278350516,0.315463918,0.397938144,0.053608247,0.150515464,0.04742268,0.127835052,-0.595876289,-0.542268041,4.760742188,0.018286113,6.225585938,0.010649413,7.763671875,0.005626079,87
0.873216564,0.116152881,0.115962579,0.828333333,0.133017267,0.866982733,0.132799335,0.000217932,0.166666667,0.76,0.775,0.015,0.286666667,0.335292159,0.190865214,2.177866517,0.201207244,0.91750503,0.935613682,0.018108652,0.076666667,0.318333333,0.443333333,0.533333333,-0.806978303,-0.00219115,-0.809169453,0.035,0.118333333,0.092555332,0.384305835,0.535211268,0.643863179,0.042253521,0.142857143,0.050301811,0.241448692,-0.382293763,-0.291750503,4.614257813,0.020851237,5.932617188,0.013516468,7.397460938,0.005615138,87
0.877108521,0.115881651,0.115063126,0.838333333,0.132117803,0.867882197,0.131184594,0.000933208,0.163333333,0.74,0.785,0.045,0.285,0.320377134,0.18621793,2.172780951,0.194831014,0.882703777,0.93638171,0.053677932,0.075,0.215,0.248333333,0.32,-0.778836148,0.038220524,-0.740615624,0.033333333,0.118333333,0.089463221,0.256461233,0.296222664,0.381709742,0.039761431,0.141153082,0.049701789,0.115308151,-0.586481113,-0.554671968,4.541015625,0.022718274,5.859375,0.014602221,7.250976563,0.005926124,87
0.903006961,0.097643265,0.097614583,0.795,0.108131243,0.891868757,0.108099481,3.18E-05,0.165,0.731666667,0.74,0.008333333,0.268333333,0.356151048,0.182722844,1.775332097,0.20754717,0.92033543,0.93081761,0.01048218,0.075,0.315,0.431666667,0.533333333,-0.778935235,-0.020769553,-0.799704788,0.035,0.118333333,0.094339623,0.396226415,0.542976939,0.670859539,0.044025157,0.14884696,0.050314465,0.247379455,-0.377358491,-0.259958071,4.833984375,0.020946785,6.15234375,0.012618787,7.690429688,0.004857738,87
0.91036459,0.087721241,0.087455114,0.783333333,0.096358362,0.903641638,0.096066032,0.000292331,0.163333333,0.716666667,0.735,0.018333333,0.265,0.364424918,0.179415297,1.81492223,0.208510638,0.914893617,0.938297872,0.023404255,0.073333333,0.221666667,0.243333333,0.313333333,-0.766809909,0.019289014,-0.747520895,0.033333333,0.113333333,0.093617021,0.282978723,0.310638298,0.4,0.042553191,0.144680851,0.05106383,0.138297872,-0.604255319,-0.538297872,4.907226563,0.022053486,6.225585938,0.012427556,7.836914063,0.004438358,87
0.919952251,0.081106291,0.07899852,0.808333333,0.088163588,0.911836412,0.085872413,0.002291175,0.163333333,0.723333333,0.761666667,0.038333333,0.265,0.349968304,0.177545447,1.737991947,0.202061856,0.894845361,0.942268041,0.04742268,0.076666667,0.218333333,0.25,0.315,-0.800870749,0.04277796,-0.75809279,0.036666667,0.118333333,0.094845361,0.270103093,0.309278351,0.389690722,0.045360825,0.146391753,0.049484536,0.12371134,-0.58556701,-0.55257732,4.760742188,0.022257942,6.079101563,0.013839054,7.543945313,0.005034987,87
0.709400871,0.117843501,0.117398284,0.818333333,0.166116938,0.833883062,0.165489343,0.000627595,0.156666667,0.723333333,0.756666667,0.033333333,0.336666667,0.288801692,0.220843634,1.910975686,0.191446029,0.883910387,0.924643585,0.040733198,0.073333333,0.205,0.241666667,0.311666667,-0.847995027,0.04273444,-0.805260586,0.033333333,0.115,0.089613035,0.250509165,0.295315682,0.380855397,0.040733198,0.140529532,0.048879837,0.109979633,-0.588594705,-0.543788187,3.076171875,0.045595292,4.614257813,0.018399934,6.005859375,0.011724505,87
0.885126052,0.355084497,0.354929103,0.733333333,0.401168282,0.598831718,0.40099272,0.000175561,0.166666667,0.425,0.438333333,0.013333333,0.263333333,0.320598111,0.188297098,1.203676262,0.227272727,0.579545455,0.597727273,0.018181818,0.08,0.228333333,0.24,0.31,-0.83480204,0.005238475,-0.829563564,0.04,0.123333333,0.109090909,0.311363636,0.327272727,0.422727273,0.054545455,0.168181818,0.054545455,0.143181818,-0.252272727,-0.175,2.05078125,0.128040466,3.662109375,0.04387966,5.346679688,0.022997121,87
0.769364451,0.086122147,0.074431335,0.795,0.111939338,0.888060662,0.096743923,0.015195415,0.158333333,0.715,0.781666667,0.066666667,0.28,0.35627941,0.205797568,6.459161028,0.199161426,0.899371069,0.983228512,0.083857442,0.073333333,0.306666667,0.413333333,0.503333333,-0.826946452,-0.014305117,-0.841251569,0.033333333,0.113333333,0.092243187,0.385744235,0.519916143,0.63312369,0.041928721,0.142557652,0.050314465,0.243186583,-0.379454927,-0.350104822,4.760742188,0.01580546,6.079101563,0.009835401,7.836914063,0.004205589,87
0.811804311,0.247108013,0.221434333,0.78,0.304393571,0.695606429,0.272768117,0.031625454,0.163333333,0.613333333,0.726666667,0.113333333,0.291666667,0.293860598,0.201197913,4.633275245,0.209401709,0.786324786,0.931623932,0.145299145,0.078333333,0.225,0.236666667,0.305,-0.854599961,0.006537342,-0.848062619,0.036666667,0.118333333,0.10042735,0.288461539,0.303418803,0.391025641,0.047008547,0.151709402,0.053418803,0.136752137,-0.482905983,-0.540598291,1.831054688,0.120923397,3.369140625,0.054689391,4.907226563,0.024048071,87
0.817218662,0.115181456,0.114454753,0.793333333,0.140943252,0.859056748,0.140054013,0.000889238,0.161666667,0.72,0.745,0.025,0.266666667,0.327068692,0.197825471,2.383064597,0.203781513,0.907563025,0.93907563,0.031512605,0.076666667,0.223333333,0.246666667,0.306666667,-0.852277142,0.018779132,-0.83349801,0.036666667,0.121666667,0.096638655,0.281512605,0.31092437,0.386554622,0.046218487,0.153361345,0.050420168,0.128151261,-0.596638656,-0.552521008,4.833984375,0.019815917,6.225585938,0.011865143,7.763671875,0.005347166,87
0.886139416,0.092148422,0.092147761,0.791666667,0.103988627,0.896011373,0.103987882,7.46E-07,0.161666667,0.733333333,0.735,0.001666667,0.258333333,0.354618379,0.182439313,1.626148616,0.204210526,0.92631579,0.928421053,0.002105263,0.078333333,0.223333333,0.245,0.305,-0.863303072,0.017665162,-0.84563791,0.038333333,0.121666667,0.098947368,0.282105263,0.309473684,0.385263158,0.048421053,0.153684211,0.050526316,0.128421053,-0.616842105,-0.543157895,4.833984375,0.018108014,6.298828125,0.01064008,7.91015625,0.004661359,87
0.903998056,0.110913096,0.11025866,0.788333333,0.122691742,0.877308258,0.121967807,0.000723935,0.163333333,0.721666667,0.745,0.023333333,0.261666667,0.346646207,0.180678855,2.559532994,0.207188161,0.915433404,0.945031713,0.029598309,0.078333333,0.218333333,0.251666667,0.311666667,-0.830084566,0.038047874,-0.792036692,0.036666667,0.121666667,0.099365751,0.276955603,0.319238901,0.395348837,0.046511628,0.154334038,0.052854123,0.122621565,-0.596194503,-0.549682875,4.907226563,0.02170245,6.298828125,0.012208931,7.836914063,0.005015944,87
0.890133428,0.101531931,0.098703445,0.816666667,0.114063721,0.885936279,0.110886123,0.003177598,0.158333333,0.703333333,0.766666667,0.063333333,0.248333333,0.338661511,0.177875955,2.030638624,0.193877551,0.86122449,0.93877551,0.07755102,0.075,0.215,0.243333333,0.298333333,-0.834109832,0.029826948,-0.804282884,0.035,0.12,0.091836735,0.263265306,0.297959184,0.365306122,0.042857143,0.146938776,0.048979592,0.116326531,-0.563265306,-0.573469388,4.6875,0.021517393,6.005859375,0.014173184,7.470703125,0.006062615,87
0.895741243,0.084955147,0.084607819,0.795,0.094843403,0.905156598,0.094455648,0.000387755,0.163333333,0.726666667,0.746666667,0.02,0.26,0.362033436,0.182344326,1.757692702,0.205450734,0.914046122,0.939203354,0.025157233,0.076666667,0.226666667,0.238333333,0.306666667,-0.811109479,0.004160464,-0.806949014,0.036666667,0.12,0.096436059,0.285115304,0.299790356,0.385744235,0.046121593,0.150943396,0.050314465,0.134171908,-0.614255765,-0.55345912,4.833984375,0.018806621,6.225585938,0.011889799,7.763671875,0.004446375,87
0.901941148,0.090844072,0.086657751,0.826666667,0.100720621,0.899279379,0.096079164,0.004641457,0.163333333,0.696666667,0.78,0.083333333,0.258333333,0.360536895,0.181090899,1.946658695,0.197580645,0.842741936,0.943548387,0.100806452,0.075,0.225,0.235,0.303333333,-0.760293207,0.003751401,-0.756541807,0.035,0.116666667,0.090725806,0.272177419,0.284274194,0.366935484,0.04233871,0.141129032,0.048387097,0.131048387,-0.558467742,-0.576612903,4.614257813,0.020162013,5.932617188,0.013393752,7.397460938,0.005515038,87
0.910054695,0.066390135,0.063456033,0.806666667,0.072951808,0.927048193,0.069727714,0.003224094,0.163333333,0.731666667,0.77,0.038333333,0.263333333,0.354326022,0.179476392,1.810640044,0.202479339,0.907024793,0.954545455,0.047520661,0.076666667,0.221666667,0.246666667,0.315,-0.778633956,0.021576696,-0.757057259,0.035,0.118333333,0.095041322,0.274793388,0.305785124,0.390495868,0.04338843,0.146694215,0.051652893,0.128099174,-0.601239669,-0.564049587,4.760742188,0.021662558,6.005859375,0.013401156,7.543945313,0.004680852,87
0.731766694,0.095169417,0.093691544,0.793333333,0.130054317,0.869945683,0.12803472,0.002019597,0.161666667,0.713333333,0.748333333,0.035,0.263333333,0.333153773,0.220926517,2.114875941,0.203781513,0.899159664,0.943277311,0.044117647,0.075,0.291666667,0.408333333,0.54,-0.832877035,-0.050756237,-0.883633272,0.035,0.116666667,0.094537815,0.367647059,0.514705882,0.680672269,0.044117647,0.147058824,0.050420168,0.220588235,-0.384453782,-0.262605042,4.833984375,0.016305804,6.225585938,0.01128451,7.690429688,0.005191684,87
0.901276135,0.105852949,0.105602762,0.81,0.117447855,0.882552145,0.117170264,0.000277591,0.165,0.74,0.758333333,0.018333333,0.265,0.352326695,0.183073748,2.048766744,0.203703704,0.913580247,0.936213992,0.022633745,0.075,0.22,0.236666667,0.31,-0.759112528,0.013586827,-0.745525701,0.035,0.116666667,0.092592593,0.271604938,0.29218107,0.382716049,0.043209877,0.144032922,0.049382716,0.127572017,-0.621399177,-0.553497942,4.760742188,0.021174329,6.079101563,0.01362376,7.543945313,0.005384893,87
0.931840145,0.063657127,0.062271508,0.82,0.068313356,0.931686644,0.066826385,0.001486971,0.158333333,0.715,0.766666667,0.051666667,0.26,0.369171982,0.169914694,1.19357114,0.193089431,0.87195122,0.93495935,0.06300813,0.075,0.211666667,0.246666667,0.313333333,-0.844172857,0.043500895,-0.800671963,0.035,0.118333333,0.091463415,0.258130081,0.300813008,0.382113821,0.042682927,0.144308943,0.048780488,0.113821138,-0.571138211,-0.552845529,4.6875,0.020210857,5.859375,0.012531651,7.543945313,0.004369549,87
0.912152198,0.096806393,0.094245536,0.816666667,0.10612965,0.89387035,0.103322161,0.002807489,0.161666667,0.713333333,0.771666667,0.058333333,0.25,0.346428847,0.177236504,2.151253182,0.197959184,0.873469388,0.944897959,0.071428571,0.076666667,0.216666667,0.248333333,0.303333333,-0.819075591,0.035480967,-0.783594625,0.035,0.121666667,0.093877551,0.265306122,0.304081633,0.371428571,0.042857143,0.148979592,0.051020408,0.116326531,-0.569387755,-0.573469388,4.6875,0.022460838,6.005859375,0.014622471,7.470703125,0.005956047,87
0.908021918,0.11966462,0.119368225,0.748333333,0.131786048,0.868213952,0.13145963,0.000326418,0.156666667,0.693333333,0.71,0.016666667,0.243333333,0.352052196,0.172536217,3.121685748,0.20935412,0.926503341,0.948775056,0.022271715,0.075,0.215,0.246666667,0.291666667,-0.831961115,0.034048691,-0.797912424,0.035,0.118333333,0.100222717,0.287305123,0.329621381,0.389755011,0.046770601,0.158129176,0.053452116,0.129175947,-0.59688196,-0.559020045,5.126953125,0.02054163,6.665039063,0.010983332,8.349609375,0.004890563,87
0.912386242,0.119031509,0.118898089,0.773333333,0.130461754,0.869538247,0.130315522,0.000146232,0.16,0.716666667,0.73,0.013333333,0.248333333,0.333150733,0.175364328,2.746880976,0.206896552,0.926724138,0.943965517,0.017241379,0.075,0.216666667,0.25,0.295,-0.788025656,0.035393734,-0.752631922,0.035,0.116666667,0.096982759,0.280172414,0.323275862,0.381465517,0.045258621,0.150862069,0.051724138,0.129310345,-0.603448276,-0.5625,4.98046875,0.023612425,6.372070313,0.01356516,7.91015625,0.005900297,87
0.925501856,0.073098993,0.072920332,0.77,0.078983086,0.921016914,0.078790044,0.000193042,0.16,0.713333333,0.725,0.011666667,0.248333333,0.361667524,0.172879178,1.624422063,0.207792208,0.926406926,0.941558442,0.015151515,0.076666667,0.216666667,0.253333333,0.301666667,-0.81111891,0.040241524,-0.770877386,0.036666667,0.12,0.0995671,0.281385281,0.329004329,0.391774892,0.047619048,0.155844156,0.051948052,0.125541126,-0.597402597,-0.54978355,4.98046875,0.020384124,6.372070313,0.011226631,7.983398438,0.003958554,87
0.943962892,0.096516581,0.095313871,0.778333333,0.10224616,0.89775384,0.100972053,0.001274108,0.161666667,0.71,0.74,0.03,0.255,0.356151845,0.171263794,2.51782386,0.207708779,0.912205568,0.950749465,0.038543897,0.075,0.218333333,0.256666667,0.31,-0.788326,0.045593501,-0.742732499,0.035,0.118333333,0.096359743,0.280513919,0.329764454,0.398286938,0.04496788,0.152034261,0.051391863,0.128479657,-0.582441114,-0.552462527,4.907226563,0.023481508,6.298828125,0.012826066,7.836914063,0.00470581,87
0.912212658,0.068343853,0.067357814,0.798333333,0.074920965,0.925079035,0.073840034,0.001080931,0.156666667,0.721666667,0.75,0.028333333,0.251666667,0.347556773,0.171743579,1.414010751,0.196242171,0.903966597,0.939457203,0.035490605,0.075,0.211666667,0.25,0.305,-0.822847562,0.053202378,-0.769645184,0.035,0.118333333,0.09394572,0.265135699,0.313152401,0.382045929,0.043841336,0.14822547,0.050104384,0.11691023,-0.590814196,-0.557411274,4.833984375,0.020955017,6.079101563,0.013874704,7.6171875,0.004610781,87
0.873469377,0.308101753,0.306200053,0.755,0.35273332,0.64726668,0.35055614,0.00217718,0.16,0.4,0.431666667,0.031666667,0.231666667,0.349516352,0.183177572,0.952892021,0.21192053,0.529801325,0.571743929,0.041942605,0.076666667,0.286666667,0.411666667,0.54,-0.81311259,-0.012046063,-0.825158653,0.036666667,0.121666667,0.101545254,0.379690949,0.545253863,0.715231788,0.048565121,0.161147903,0.052980132,0.218543046,0.015452539,0.143487859,5.126953125,0.01952549,6.518554688,0.01146775,8.129882813,0.004872597,87
0.859834146,0.327888805,0.322303266,0.691666667,0.381339594,0.618660406,0.374843529,0.006496065,0.153333333,0.373333333,0.42,0.046666667,0.223333333,0.355662857,0.178328965,1.206952655,0.221686747,0.539759036,0.607228916,0.06746988,0.075,0.22,0.233333333,0.268333333,-0.851582359,0.004792524,-0.846789835,0.035,0.116666667,0.108433735,0.318072289,0.337349398,0.387951807,0.05060241,0.168674699,0.057831325,0.14939759,-0.202409639,-0.219277108,2.197265625,0.111947007,5.56640625,0.016207671,7.250976563,0.008469811,87
0.892081713,0.112274552,0.110120317,0.755,0.125856802,0.874143198,0.123441962,0.00241484,0.161666667,0.683333333,0.716666667,0.033333333,0.243333333,0.348783245,0.181224057,2.928901343,0.214128035,0.905077263,0.949227373,0.04415011,0.078333333,0.218333333,0.246666667,0.301666667,-0.832162309,0.029040025,-0.803122284,0.038333333,0.123333333,0.103752759,0.289183223,0.326710817,0.399558499,0.050772627,0.163355408,0.052980132,0.125827815,-0.578366446,-0.549668874,5.126953125,0.022119387,6.591796875,0.012014906,8.203125,0.005193258,87
0.874605152,0.387994495,0.35617155,0.715,0.443622467,0.556377533,0.407236968,0.036385499,0.151666667,0.373333333,0.471666667,0.098333333,0.238333333,0.280993934,0.173411586,1.594497924,0.212121212,0.522144522,0.65967366,0.137529138,0.073333333,0.206666667,0.23,0.28,-0.866581234,0.027309126,-0.839272108,0.035,0.115,0.102564103,0.289044289,0.321678322,0.391608392,0.048951049,0.160839161,0.053613054,0.128205128,-0.200466201,-0.268065268,2.124023438,0.146752918,3.80859375,0.054858525,5.419921875,0.026235925,87
0.780722704,0.749148635,0.191182105,1.118333333,0.959557896,0.040442104,0.244878372,0.714679524,0.153333333,0.571666667,0.711666667,0.14,0.305,0.186567591,0.196399224,1.842168775,0.137108793,0.511177347,0.636363636,0.125186289,0.063333333,0.235,0.323333333,0.378333333,-0.773880642,-0.251184075,-1.025064717,0.026666667,0.096666667,0.056631893,0.210134128,0.289120715,0.338301043,0.023845007,0.086438152,0.032786885,0.123695976,-0.222056632,-0.298062593,1.428222656,0.158452575,3.295898438,0.067281743,5.090332031,0.018683469,124
0.689333766,0.690303429,0.158841797,1.143333333,1.001406668,-0.001406668,0.230427994,0.770978673,0.145,0.585,0.721666667,0.136666667,0.226666667,0.160505945,0.210348031,1.637083231,0.126822157,0.511661808,0.631195335,0.119533528,0.063333333,0.23,0.321666667,0.355,-0.82112748,-0.266974385,-1.088101865,0.026666667,0.096666667,0.055393586,0.201166181,0.281341108,0.310495627,0.023323615,0.084548105,0.032069971,0.116618076,-0.2303207,-0.320699709,1.428222656,0.135295896,3.259277344,0.065208607,5.017089844,0.022495545,124
0.707317308,0.475067977,0.471040349,1.19,0.671647607,0.328352393,0.665953376,0.005694231,0.145,0.285,0.318333333,0.033333333,0.368333333,0.135440096,0.204999932,0.545011064,0.12184874,0.239495798,0.267507003,0.028011204,0.063333333,0.215,0.298333333,0.383333333,-0.851840847,-0.25884684,-1.110687687,0.028333333,0.096666667,0.053221289,0.180672269,0.25070028,0.322128852,0.023809524,0.081232493,0.029411765,0.099439776,0.011204482,0.054621849,1.428222656,0.125037258,3.149414063,0.060957874,4.870605469,0.026128303,124
0.663046168,0.624516637,0.14247228,1.183333333,0.941890123,0.058109877,0.214875354,0.72701477,0.146666667,0.6,0.738333333,0.138333333,0.3,0.168629476,0.221201289,1.403408172,0.123943662,0.507042254,0.623943662,0.116901409,0.065,0.228333333,0.321666667,0.393333333,-0.841303357,-0.261408785,-1.102712142,0.03,0.098333333,0.054929577,0.192957747,0.271830986,0.332394366,0.025352113,0.083098592,0.029577465,0.109859155,-0.235211268,-0.291549296,1.354980469,0.125919626,3.149414063,0.059106903,4.833984375,0.022062066,124
0.613285492,0.585768935,0.108720391,1.1,0.955132548,0.044867452,0.177275336,0.777857213,0.135,0.551666667,0.683333333,0.131666667,0.231666667,0.162918135,0.220125866,1.405845443,0.122727273,0.501515152,0.621212121,0.11969697,0.063333333,0.213333333,0.303333333,0.356666667,-0.897589658,-0.302280982,-1.19987064,0.028333333,0.096666667,0.057575758,0.193939394,0.275757576,0.324242424,0.025757576,0.087878788,0.031818182,0.106060606,-0.225757576,-0.296969697,1.46484375,0.117054605,3.405761719,0.057660245,5.236816406,0.019830642,124
0.509843282,0.296330745,0.27998657,0.543333333,0.58121928,0.41878072,0.549162027,0.032057253,0.135,0.258333333,0.308333333,0.05,0.298333333,0.294048323,0.264787249,1.260981894,0.248466258,0.475460123,0.567484663,0.09202454,0.066666667,0.196666667,0.278333333,0.371666667,-0.955974949,0.467167789,-0.48880716,0.031666667,0.101666667,0.122699387,0.36196319,0.512269939,0.68404908,0.058282209,0.187116564,0.064417178,0.174846626,0.036809816,0.116564417,3.002929688,0.063444938,4.98046875,0.034179772,7.397460938,0.008965278,124
0.707317308,0.475067977,0.471040349,0.598333333,0.671647607,0.328352393,0.665953376,0.005694231,0.145,0.285,0.318333333,0.033333333,0.398333333,0.295202221,0.204999932,1.696671348,0.242339833,0.47632312,0.532033426,0.055710306,0.063333333,0.215,0.298333333,0.383333333,-0.851840847,-0.25884684,-1.110687687,0.028333333,0.096666667,0.105849582,0.359331476,0.498607242,0.640668524,0.04735376,0.161559889,0.058495822,0.197771588,0.022284123,0.108635098,2.63671875,0.093918766,4.541015625,0.043531206,6.518554688,0.013199717,124
0.780722704,0.749148635,0.191182105,1.118333333,0.959557896,0.040442104,0.244878372,0.714679524,0.153333333,0.571666667,0.711666667,0.14,0.305,0.186567591,0.196399224,1.842168775,0.137108793,0.511177347,0.636363636,0.125186289,0.063333333,0.235,0.323333333,0.378333333,-0.773880642,-0.251184075,-1.025064717,0.026666667,0.096666667,0.056631893,0.210134128,0.289120715,0.338301043,0.023845007,0.086438152,0.032786885,0.123695976,-0.222056632,-0.298062593,1.428222656,0.158452575,3.295898438,0.067281743,5.090332031,0.018683469,124
0.689333766,0.690303429,0.158841797,1.143333333,1.001406668,-0.001406668,0.230427994,0.770978673,0.145,0.585,0.721666667,0.136666667,0.226666667,0.160505945,0.210348031,1.637083231,0.126822157,0.511661808,0.631195335,0.119533528,0.063333333,0.23,0.321666667,0.355,-0.82112748,-0.266974385,-1.088101865,0.026666667,0.096666667,0.055393586,0.201166181,0.281341108,0.310495627,0.023323615,0.084548105,0.032069971,0.116618076,-0.2303207,-0.320699709,1.428222656,0.135295896,3.259277344,0.065208607,5.017089844,0.022495545,124
0.707317308,0.475067977,0.471040349,1.19,0.671647607,0.328352393,0.665953376,0.005694231,0.145,0.285,0.318333333,0.033333333,0.368333333,0.135440096,0.204999932,0.545011064,0.12184874,0.239495798,0.267507003,0.028011204,0.063333333,0.215,0.298333333,0.383333333,-0.851840847,-0.25884684,-1.110687687,0.028333333,0.096666667,0.053221289,0.180672269,0.25070028,0.322128852,0.023809524,0.081232493,0.029411765,0.099439776,0.011204482,0.054621849,1.428222656,0.125037258,3.149414063,0.060957874,4.870605469,0.026128303,124
0.707642399,0.713475003,0.148145855,1.233333333,1.008242304,-0.008242304,0.209351298,0.798891006,0.156666667,0.618333333,0.768333333,0.15,0.281666667,0.160110632,0.221392425,1.534354845,0.127027027,0.501351351,0.622972973,0.121621622,0.065,0.255,0.37,0.455,-0.730201747,0.241419229,-0.488782518,0.025,0.103333333,0.052702703,0.206756757,0.3,0.368918919,0.02027027,0.083783784,0.032432432,0.122972973,-0.201351351,-0.254054054,1.318359375,0.140812859,3.039550781,0.063845451,4.650878906,0.019440298,108
0.707642399,0.713475003,0.148145855,1.233333333,1.008242304,-0.008242304,0.209351298,0.798891006,0.156666667,0.618333333,0.768333333,0.15,0.281666667,0.160110632,0.221392425,1.534354845,0.127027027,0.501351351,0.622972973,0.121621622,0.065,0.255,0.37,0.455,-0.730201747,0.241419229,-0.488782518,0.025,0.103333333,0.052702703,0.206756757,0.3,0.368918919,0.02027027,0.083783784,0.032432432,0.122972973,-0.201351351,-0.254054054,1.318359375,0.140812859,3.039550781,0.063845451,4.650878906,0.019440298,108
0.827722327,0.773724956,0.207952122,1.155,0.934763907,0.065236093,0.251234158,0.683529749,0.173333333,0.573333333,0.738333333,0.165,0.313333333,0.214123637,0.209410001,1.856939893,0.15007215,0.496392496,0.639249639,0.142857143,0.07,0.25,0.381666667,0.465,-0.625728713,-0.457857661,-1.083586374,0.023333333,0.113333333,0.060606061,0.216450217,0.33044733,0.402597403,0.02020202,0.098124098,0.04040404,0.118326118,-0.165945166,-0.236652237,1.428222656,0.156967817,3.22265625,0.063438007,4.907226563,0.01251678,109
0.749026017,0.744328826,0.198633814,1.153333333,0.993728934,0.006271066,0.265189472,0.728539463,0.168333333,0.581666667,0.746666667,0.165,0.323333333,0.183242463,0.224736297,1.830316784,0.145953757,0.50433526,0.647398844,0.143063584,0.07,0.235,0.375,0.485,-0.651582718,-0.5519727,-1.203555418,0.026666667,0.111666667,0.060693642,0.203757225,0.325144509,0.420520231,0.023121387,0.096820809,0.037572254,0.106936416,-0.179190751,-0.226878613,1.391601563,0.147806406,3.22265625,0.066235547,5.017089844,0.014568054,109
0.756760239,0.779666213,0.205572978,1.14,1.030268468,-0.030268468,0.271648756,0.758619712,0.166666667,0.571666667,0.736666667,0.165,0.29,0.183818324,0.220237082,1.933056726,0.14619883,0.501461988,0.64619883,0.144736842,0.07,0.24,0.371666667,0.461666667,-0.687675714,0.290421023,-0.397254691,0.025,0.111666667,0.061403509,0.210526316,0.326023392,0.40497076,0.021929825,0.097953216,0.039473684,0.112573099,-0.175438597,-0.24122807,1.391601563,0.152739087,3.259277344,0.066025352,5.053710938,0.013809422,109
0.761703803,0.782792689,0.210958749,1.135,1.027686467,-0.027686467,0.276956408,0.750730059,0.166666667,0.568333333,0.733333333,0.165,0.305,0.181833549,0.218807713,1.948861467,0.146842878,0.500734214,0.646108664,0.145374449,0.07,0.238333333,0.376666667,0.471666667,-0.68369972,0.274230082,-0.409469638,0.026666667,0.11,0.061674009,0.209985316,0.331864905,0.415565345,0.023494861,0.0969163,0.038179148,0.113069016,-0.16886931,-0.230543319,1.428222656,0.152165266,3.259277344,0.064737522,5.090332031,0.013651258,109
0.803894332,0.763412565,0.183279421,1.131666667,0.949642925,0.050357075,0.227989443,0.721653482,0.168333333,0.57,0.731666667,0.161666667,0.278333333,0.20489631,0.209397338,1.908531412,0.148748159,0.503681885,0.646539028,0.142857143,0.068333333,0.243333333,0.38,0.465,-0.64921524,0.255583647,-0.393631593,0.023333333,0.111666667,0.060382916,0.215022091,0.335787923,0.41089838,0.020618557,0.098674521,0.039764359,0.11634757,-0.167893962,-0.235640648,1.428222656,0.160218876,3.259277344,0.067582443,5.053710938,0.013781007,109
0.82023668,0.332092113,0.317153425,0.576666667,0.404873522,0.595126478,0.386660866,0.018212656,0.156666667,0.355,0.421666667,0.066666667,0.216666667,0.413628759,0.191001781,2.142529764,0.271676301,0.615606936,0.731213873,0.115606936,0.065,0.24,0.383333333,0.545,-0.684929435,0.314237541,-0.370691894,0.021666667,0.103333333,0.112716763,0.416184971,0.664739884,0.945086705,0.037572254,0.179190751,0.075144509,0.23699422,0.049132948,0.213872832,2.709960938,0.127967335,4.833984375,0.02682131,6.73828125,0.01586093,109
0.70574906,0.748711066,0.180957772,1.311666667,1.060874336,-0.060874336,0.256405262,0.804469075,0.148333333,0.681666667,0.83,0.148333333,0.371666667,0.126374291,0.210178577,1.554417438,0.113087675,0.519695045,0.632782719,0.113087675,0.058333333,0.243333333,0.325,0.431666667,-0.722211625,-0.106103516,-0.828315141,0.021666667,0.091666667,0.044472681,0.185514613,0.247776366,0.32909784,0.016518424,0.069885642,0.027954257,0.115628971,-0.271918679,-0.303684879,1.208496094,0.15720398,2.783203125,0.06549202,3.588867188,0.008975936,91
0.86424317,0.854405712,0.275881804,1.305,0.988617257,0.011382743,0.319217801,0.669399456,0.18,0.645,0.82,0.175,0.42,0.180865542,0.208274715,1.761661262,0.137931035,0.494252874,0.62835249,0.134099617,0.061666667,0.251666667,0.326666667,0.436666667,-0.630431279,-0.20693238,-0.837363659,0.021666667,0.093333333,0.047254151,0.19284802,0.250319285,0.334610473,0.01660281,0.071519796,0.030651341,0.121328225,-0.243933589,-0.293742018,1.245117188,0.166629384,2.819824219,0.06291157,4.357910156,0.025639878,91
0.795061694,0.738546881,0.23390401,1.363333333,0.928917701,0.071082299,0.294196049,0.634721651,0.171666667,0.681666667,0.85,0.168333333,0.383333333,0.173849977,0.215916158,1.43872769,0.12591687,0.5,0.623471883,0.123471883,0.06,0.248333333,0.328333333,0.401666667,-0.644975059,-0.202722726,-0.847697785,0.021666667,0.093333333,0.04400978,0.182151589,0.240831296,0.294621027,0.015892421,0.068459658,0.028117359,0.113691932,-0.259168704,-0.328850856,1.171875,0.152688651,2.709960938,0.057973683,4.174804688,0.025905598,91
0.933002295,0.891843643,0.328693191,1.076666667,0.955885798,0.044114202,0.35229623,0.603589568,0.135,0.526666667,0.66,0.133333333,0.36,0.161881959,0.144694178,2.140424744,0.125386997,0.489164087,0.613003096,0.123839009,0.053333333,0.23,0.305,0.413333333,-0.741024694,-0.096869396,-0.83789409,0.018333333,0.085,0.049535604,0.213622291,0.283281734,0.383900929,0.017027864,0.078947368,0.03250774,0.134674923,-0.205882353,-0.229102167,1.647949219,0.161291284,3.479003906,0.069336634,5.419921875,0.017612053,116
0.888902308,0.498616388,0.493861502,1.158333333,0.560934968,0.439065032,0.555585802,0.005349166,0.143333333,0.338333333,0.373333333,0.035,0.383333333,0.153684055,0.161247566,0.635180112,0.123741007,0.292086331,0.322302158,0.030215827,0.055,0.25,0.351666667,0.458333333,-0.703314666,0.23177765,-0.471537017,0.018333333,0.085,0.047482014,0.215827338,0.303597122,0.395683453,0.015827338,0.073381295,0.031654676,0.142446043,0.011510791,0.073381295,1.46484375,0.155951636,3.22265625,0.075659398,5.126953125,0.016620657,116
0.7581325,0.378584866,0.376938131,0.615,0.49936504,0.500634961,0.497192946,0.002172094,0.115,0.318333333,0.346666667,0.028333333,0.25,0.263455979,0.151688524,1.410875276,0.18699187,0.517615176,0.563685637,0.046070461,0.056666667,0.151666667,0.21,0.241666667,-1.012896451,0.164289641,-0.84860681,0.025,0.091666667,0.092140921,0.246612466,0.341463415,0.39295393,0.040650407,0.149051491,0.051490515,0.097560976,-0.176151762,-0.170731707,2.416992188,0.095080715,4.028320313,0.050723887,6.15234375,0.023114172,109
0.761202419,0.415369922,0.40405193,1.171666667,0.54567604,0.45432396,0.53080747,0.01486857,0.115,0.3,0.346666667,0.046666667,0.336666667,0.112413784,0.151076766,0.503478693,0.098150782,0.256045519,0.295874822,0.039829303,0.058333333,0.153333333,0.215,0.231666667,-1.014916039,0.163718637,-0.851197401,0.025,0.091666667,0.049786629,0.13086771,0.183499289,0.19772404,0.021337127,0.078236131,0.028449502,0.052631579,-0.07254623,-0.098150782,1.354980469,0.134020226,3.149414063,0.071665129,4.870605469,0.033993463,109
0.790158735,0.422452412,0.421280408,0.588333333,0.534642462,0.465357538,0.533159211,0.001483251,0.113333333,0.32,0.343333333,0.023333333,0.341666667,0.259637302,0.143431096,1.724295557,0.192634561,0.543909348,0.583569405,0.039660057,0.056666667,0.148333333,0.205,0.246666667,-1.020151417,0.168928981,-0.851222436,0.025,0.091666667,0.09631728,0.252124646,0.348441926,0.419263456,0.042492918,0.155807365,0.053824363,0.09631728,-0.195467422,-0.164305949,2.563476563,0.102614635,4.39453125,0.045254835,6.372070313,0.022730207,109
0.789518427,0.404381613,0.404355434,0.59,0.512187682,0.487812318,0.512154524,3.32E-05,0.113333333,0.331666667,0.338333333,0.006666667,0.328333333,0.265700421,0.14354742,1.606814357,0.192090396,0.562146893,0.573446328,0.011299435,0.056666667,0.148333333,0.2,0.243333333,-1.007954067,0.187100739,-0.820853328,0.023333333,0.09,0.096045198,0.251412429,0.338983051,0.412429379,0.039548023,0.152542373,0.056497175,0.098870057,-0.223163842,-0.161016949,2.563476563,0.10476764,4.321289063,0.045840737,6.372070313,0.024024035,109
0.791723497,0.449865444,0.448113604,1.165,0.568210298,0.431789703,0.565997606,0.002212691,0.115,0.313333333,0.34,0.026666667,0.36,0.11649418,0.145252731,0.545291447,0.098712446,0.268955651,0.291845494,0.022889843,0.058333333,0.15,0.206666667,0.245,-1.025802421,0.179876568,-0.845925853,0.025,0.091666667,0.050071531,0.128755365,0.17739628,0.210300429,0.021459227,0.078683834,0.028612303,0.050071531,-0.091559371,-0.081545064,1.354980469,0.136062782,3.186035156,0.068670131,4.907226563,0.031374417,109
0.782521052,0.421576887,0.421564903,1.203333333,0.538741911,0.461258089,0.538726596,1.53E-05,0.113333333,0.321666667,0.326666667,0.005,0.34,0.112057431,0.144831034,0.480886183,0.094182825,0.267313019,0.271468144,0.004155125,0.056666667,0.148333333,0.205,0.241666667,-1.021507234,0.175530259,-0.845976975,0.025,0.09,0.047091413,0.123268698,0.170360111,0.200831025,0.020775623,0.074792244,0.026315789,0.048476454,-0.096952909,-0.070637119,1.281738281,0.142741976,3.076171875,0.069999879,4.724121094,0.037478606,109
0.803486644,0.444741348,0.4446957,0.603333333,0.553514301,0.446485699,0.553457489,5.68E-05,0.113333333,0.318333333,0.325,0.006666667,0.345,0.261881342,0.14105192,1.597873107,0.187845304,0.527624309,0.538674033,0.011049724,0.056666667,0.15,0.203333333,0.241666667,-0.999005408,0.151328183,-0.847677225,0.023333333,0.09,0.093922652,0.248618785,0.337016575,0.400552486,0.038674033,0.149171271,0.055248619,0.099447514,-0.190607735,-0.138121547,2.490234375,0.100820308,4.174804688,0.049520561,6.225585938,0.021768213,109
0.801921085,0.430576052,0.429616792,0.636666667,0.536930703,0.463069297,0.5357345,0.001196203,0.113333333,0.316666667,0.336666667,0.02,0.336666667,0.244966278,0.14132729,1.435253506,0.178010471,0.497382199,0.528795812,0.031413613,0.056666667,0.15,0.208333333,0.241666667,-0.976726066,0.149658032,-0.827068034,0.023333333,0.09,0.089005236,0.235602094,0.327225131,0.379581152,0.036649215,0.141361257,0.052356021,0.094240838,-0.170157068,-0.14921466,2.34375,0.099566492,4.028320313,0.056998261,5.932617188,0.023904674,109
0.813211959,0.45577367,0.4468912,0.626666667,0.560461102,0.439538898,0.549538402,0.010922699,0.113333333,0.301666667,0.343333333,0.041666667,0.348333333,0.243988754,0.13936506,1.608612954,0.180851064,0.481382979,0.54787234,0.066489362,0.056666667,0.15,0.206666667,0.236666667,-0.993000205,0.155067821,-0.837932385,0.023333333,0.09,0.090425532,0.239361702,0.329787234,0.377659575,0.037234043,0.143617021,0.053191489,0.095744681,-0.151595745,-0.170212766,2.416992188,0.100359756,4.1015625,0.058669455,6.005859375,0.023757469,109
0.824568087,0.435984816,0.435943335,0.638333333,0.528743257,0.471256744,0.528692951,5.03E-05,0.115,0.32,0.326666667,0.006666667,0.328333333,0.265796233,0.139466955,1.398881761,0.180156658,0.501305483,0.511749347,0.010443864,0.056666667,0.151666667,0.206666667,0.236666667,-0.983160165,0.137283634,-0.845876531,0.023333333,0.09,0.088772846,0.237597911,0.323759791,0.37075718,0.036553525,0.140992167,0.052219321,0.096605744,-0.177545692,-0.140992167,2.270507813,0.097854915,3.881835938,0.057974884,5.932617188,0.021668843,109
0.833001348,0.434535796,0.432767669,0.645,0.521650772,0.478349228,0.519528174,0.002122598,0.115,0.311666667,0.336666667,0.025,0.323333333,0.255612014,0.138054999,1.409305284,0.178294574,0.483204134,0.521963824,0.03875969,0.055,0.153333333,0.213333333,0.231666667,-0.962625209,0.137259878,-0.825365331,0.023333333,0.088333333,0.085271318,0.237726098,0.330749354,0.359173127,0.036175711,0.136950904,0.049095607,0.100775194,-0.15245478,-0.162790698,2.270507813,0.098744645,3.881835938,0.061615755,5.859375,0.02377236,109
0.852828332,0.447697923,0.438890648,0.641666667,0.524956672,0.475043328,0.514629535,0.010327137,0.113333333,0.298333333,0.34,0.041666667,0.325,0.248457557,0.132891145,1.484081511,0.176623377,0.464935065,0.52987013,0.064935065,0.055,0.153333333,0.316666667,0.418333333,-0.977760925,0.13189247,-0.845868454,0.023333333,0.09,0.085714286,0.238961039,0.493506494,0.651948052,0.036363636,0.14025974,0.049350649,0.098701299,0.028571429,0.122077922,2.270507813,0.102106264,3.955078125,0.065776775,5.932617188,0.024411957,109
0.872366834,0.494944989,0.475703245,0.635,0.567358787,0.432641213,0.545301846,0.022056941,0.115,0.293333333,0.346666667,0.053333333,0.353333333,0.24070971,0.131825278,1.716572216,0.181102362,0.461942257,0.545931759,0.083989501,0.056666667,0.155,0.316666667,0.421666667,-0.975717059,0.128250731,-0.847466328,0.023333333,0.09,0.089238845,0.244094488,0.498687664,0.664041995,0.036745407,0.141732284,0.052493438,0.102362205,0.036745407,0.118110236,2.416992188,0.10677872,4.028320313,0.06602636,5.932617188,0.02519509,109
0.908990693,0.523802714,0.523241218,0.64,0.576246509,0.423753491,0.575628795,0.000617714,0.116666667,0.318333333,0.335,0.016666667,0.358333333,0.247870286,0.128347482,1.717385946,0.182291667,0.497395833,0.5234375,0.026041667,0.056666667,0.155,0.21,0.243333333,-0.947222063,0.126315145,-0.820906917,0.023333333,0.09,0.088541667,0.2421875,0.328125,0.380208333,0.036458333,0.140625,0.052083333,0.1015625,-0.169270833,-0.143229167,2.34375,0.110285805,3.955078125,0.062605005,5.859375,0.025625344,109
0.895547804,0.544705386,0.544219359,0.648333333,0.608237086,0.391762914,0.60769437,0.000542715,0.116666667,0.321666667,0.338333333,0.016666667,0.378333333,0.22949686,0.130274081,1.757114149,0.179948586,0.496143959,0.5218509,0.025706941,0.056666667,0.153333333,0.208333333,0.245,-0.942838409,0.116366819,-0.826471591,0.023333333,0.09,0.087403599,0.236503856,0.321336761,0.377892031,0.035989717,0.138817481,0.051413882,0.097686375,-0.174807198,-0.143958869,2.34375,0.111631705,3.955078125,0.063264507,5.786132813,0.02714737,109
0.912215803,0.580756676,0.578648869,0.623333333,0.636643955,0.363356045,0.63433331,0.002310645,0.118333333,0.313333333,0.34,0.026666667,0.385,0.2437841,0.129720767,2.049729446,0.189839572,0.502673797,0.545454546,0.042780749,0.056666667,0.155,0.21,0.243333333,-0.931560508,0.121921834,-0.809638675,0.023333333,0.09,0.090909091,0.248663102,0.336898396,0.390374332,0.037433155,0.144385027,0.053475936,0.104278075,-0.165775401,-0.155080214,2.416992188,0.112378554,4.1015625,0.060188098,6.005859375,0.025812458,109
0.852193081,0.511086095,0.509999959,0.651666667,0.599730398,0.400269603,0.598455879,0.001274519,0.118333333,0.31,0.33,0.02,0.356666667,0.243634931,0.138857421,1.588868689,0.181585678,0.475703325,0.506393862,0.030690537,0.056666667,0.155,0.205,0.236666667,-0.913302586,0.097652575,-0.815650011,0.021666667,0.09,0.086956522,0.237851662,0.314578005,0.363171356,0.033248082,0.138107417,0.05370844,0.099744246,-0.16112532,-0.143222506,2.270507813,0.09676022,3.881835938,0.059568682,5.786132813,0.022027491,109
0.865180477,0.525779573,0.520478441,0.636666667,0.607710862,0.392289138,0.601583663,0.006127199,0.12,0.303333333,0.336666667,0.033333333,0.36,0.25276021,0.138699385,1.752598578,0.188481675,0.476439791,0.528795812,0.052356021,0.056666667,0.156666667,0.205,0.236666667,-0.924907894,0.092829373,-0.832078521,0.023333333,0.09,0.089005236,0.246073298,0.321989529,0.371727749,0.036649215,0.141361257,0.052356021,0.104712042,-0.154450262,-0.157068063,2.416992188,0.095750426,3.955078125,0.058388569,6.005859375,0.021032388,109
0.855972522,0.478302591,0.477433303,0.646666667,0.558782647,0.441217354,0.557767091,0.001015556,0.12,0.313333333,0.331666667,0.018333333,0.335,0.271709311,0.140191416,1.518420924,0.18556701,0.484536083,0.512886598,0.028350515,0.056666667,0.158333333,0.205,0.236666667,-0.912715905,0.085777728,-0.826938177,0.023333333,0.09,0.087628866,0.244845361,0.317010309,0.365979381,0.036082474,0.139175258,0.051546392,0.105670103,-0.167525773,-0.146907217,5.932617188,0.019057416,7.543945313,0.011032209,9.741210938,0.004012253,109
0.86102984,0.469322493,0.468852589,0.658333333,0.545071113,0.454928887,0.544525366,0.000545747,0.12,0.315,0.33,0.015,0.326666667,0.261091881,0.139367992,1.429408609,0.182278481,0.478481013,0.501265823,0.02278481,0.056666667,0.16,0.21,0.233333333,-0.902289686,0.077173787,-0.825115899,0.021666667,0.09,0.086075949,0.243037975,0.318987342,0.35443038,0.032911392,0.136708861,0.053164557,0.106329114,-0.159493671,-0.146835443,5.859375,0.021374828,7.397460938,0.013939994,9.228515625,0.005281943,109
0.878734096,0.492925886,0.484533281,0.643333333,0.560949995,0.439050005,0.551399205,0.00955079,0.12,0.301666667,0.341666667,0.04,0.338333333,0.243662494,0.136560082,1.634008462,0.186528497,0.468911917,0.531088083,0.062176166,0.056666667,0.16,0.215,0.228333333,-0.90105518,0.086734871,-0.81432031,0.021666667,0.09,0.088082902,0.248704663,0.334196891,0.35492228,0.033678756,0.139896373,0.054404145,0.10880829,-0.134715026,-0.176165803,2.34375,0.096654132,3.881835938,0.06680839,5.932617188,0.025786663,109
0.91605513,0.538997596,0.527722128,0.621666667,0.588389911,0.411610089,0.576081188,0.012308722,0.123333333,0.301666667,0.343333333,0.041666667,0.351666667,0.264206383,0.134635274,1.93651831,0.198391421,0.485254692,0.55227882,0.067024129,0.058333333,0.163333333,0.211666667,0.228333333,-0.913963345,0.060768368,-0.853194977,0.025,0.091666667,0.09383378,0.262734585,0.340482574,0.367292225,0.040214477,0.147453083,0.053619303,0.115281501,-0.144772118,-0.184986595,2.563476563,0.101421264,6.15234375,0.0217594,7.983398438,0.012217634,109
0.904607248,0.528024585,0.525633906,0.615,0.583705896,0.416294104,0.581063116,0.002642781,0.121666667,0.308333333,0.335,0.026666667,0.345,0.264558709,0.134496675,1.885802087,0.197831978,0.501355014,0.544715447,0.043360434,0.058333333,0.161666667,0.205,0.235,-0.897663402,0.07580884,-0.821854563,0.023333333,0.091666667,0.094850949,0.262872629,0.333333333,0.382113821,0.037940379,0.149051491,0.056910569,0.113821138,-0.16802168,-0.162601626,2.563476563,0.098945244,6.225585938,0.02093482,8.056640625,0.011001736,109
0.897290961,0.541534813,0.541511532,0.611666667,0.603521975,0.396478025,0.60349603,2.59E-05,0.123333333,0.32,0.326666667,0.006666667,0.355,0.260189422,0.13745077,1.900122149,0.201634877,0.523160763,0.534059946,0.010899183,0.058333333,0.16,0.2,0.238333333,-0.9032146,0.067492471,-0.835722129,0.023333333,0.091666667,0.095367847,0.261580382,0.326975477,0.389645777,0.038147139,0.14986376,0.057220708,0.111716621,-0.196185286,-0.144414169,2.563476563,0.099694842,6.225585938,0.022153343,8.129882813,0.011326541,109
0.888540333,0.566571157,0.566357424,0.606666667,0.637642587,0.362357413,0.637402043,0.000240544,0.125,0.315,0.328333333,0.013333333,0.37,0.257678161,0.140680164,2.035584994,0.206043956,0.519230769,0.541208791,0.021978022,0.058333333,0.161666667,0.203333333,0.24,-0.893059499,0.076788556,-0.816270943,0.023333333,0.093333333,0.096153846,0.266483517,0.335164835,0.395604396,0.038461538,0.153846154,0.057692308,0.112637363,-0.184065934,-0.145604396,2.563476563,0.102225265,4.248046875,0.052932561,6.298828125,0.022268467,109
0.845541168,0.514221877,0.512746032,0.628333333,0.608157115,0.391842885,0.606411671,0.001745444,0.128333333,0.311666667,0.333333333,0.021666667,0.348333333,0.261809768,0.151776564,1.743125007,0.204244032,0.49602122,0.530503979,0.034482759,0.06,0.165,0.2,0.238333333,-0.89511839,0.058441426,-0.836676964,0.025,0.095,0.095490716,0.26259947,0.318302387,0.379310345,0.039787798,0.151193634,0.055702918,0.111405836,-0.177718833,-0.151193634,2.490234375,0.088671718,6.15234375,0.019326929,7.91015625,0.012277556,109
0.860153889,0.44559169,0.444240061,0.636666667,0.518037174,0.481962826,0.516465794,0.00157138,0.125,0.311666667,0.333333333,0.021666667,0.303333333,0.271755611,0.145322833,1.468983592,0.196335079,0.489528796,0.523560209,0.034031414,0.058333333,0.166666667,0.201666667,0.231666667,-0.88117715,0.040453092,-0.840724058,0.023333333,0.093333333,0.091623037,0.261780105,0.316753927,0.363874346,0.036649215,0.146596859,0.054973822,0.115183246,-0.172774869,-0.159685864,2.709960938,0.084470292,6.15234375,0.020909706,11.27929688,0.002902257,109
0.877121885,0.485310505,0.467734709,0.615,0.55329882,0.44670118,0.53326079,0.020038031,0.126666667,0.298333333,0.343333333,0.045,0.325,0.268565529,0.144411705,1.786419035,0.20596206,0.485094851,0.558265583,0.073170732,0.06,0.173333333,0.21,0.22,-0.892640799,0.029305595,-0.863335204,0.025,0.095,0.097560976,0.281842818,0.341463415,0.357723577,0.040650407,0.154471545,0.056910569,0.127371274,-0.143631436,-0.200542005,2.856445313,0.091139957,6.372070313,0.02033832,7.91015625,0.013048077,109
0.888880196,0.464252239,0.46177554,0.608333333,0.522288876,0.477711124,0.519502563,0.002786313,0.125,0.308333333,0.335,0.026666667,0.308333333,0.287367378,0.140626375,1.698483799,0.205479452,0.506849315,0.550684932,0.043835616,0.058333333,0.168333333,0.203333333,0.225,-0.902222062,0.031919514,-0.870302548,0.025,0.093333333,0.095890411,0.276712329,0.334246575,0.369863014,0.04109589,0.153424658,0.054794521,0.123287671,-0.17260274,-0.180821918,2.709960938,0.093107244,6.4453125,0.019858936,10.10742188,0.003809561,109
0.886489002,0.534419048,0.532769344,0.586666667,0.602849045,0.397150955,0.600988103,0.001860941,0.126666667,0.308333333,0.331666667,0.023333333,0.353333333,0.267067059,0.142885773,2.095760973,0.215909091,0.525568182,0.565340909,0.039772727,0.061666667,0.166666667,0.208333333,0.23,-0.917562236,0.060540747,-0.85702149,0.026666667,0.096666667,0.105113636,0.284090909,0.355113636,0.392045455,0.045454545,0.164772727,0.059659091,0.119318182,-0.170454546,-0.173295455,2.709960938,0.103853264,4.39453125,0.050472458,6.591796875,0.021272988,109
0.733551715,0.435838848,0.434950663,1.241666667,0.594148768,0.405851232,0.592937967,0.001210801,0.121666667,0.315,0.335,0.02,0.348333333,0.107352685,0.165859699,0.480704612,0.097986577,0.253691275,0.269798658,0.016107383,0.06,0.153333333,0.201666667,0.246666667,-0.967570567,0.13088568,-0.836684887,0.025,0.093333333,0.048322148,0.123489933,0.162416107,0.198657718,0.020134228,0.075167785,0.028187919,0.048322148,-0.091275168,-0.07114094,1.318359375,0.135705011,3.002929688,0.060846616,4.614257813,0.031416968,109
0.762138374,0.40105256,0.400030491,0.65,0.526220138,0.473779862,0.524879083,0.001341055,0.118333333,0.325,0.345,0.02,0.331666667,0.250732064,0.155264893,1.314926426,0.182051282,0.5,0.530769231,0.030769231,0.058333333,0.153333333,0.203333333,0.248333333,-0.973216852,0.132129424,-0.841087429,0.025,0.091666667,0.08974359,0.235897436,0.312820513,0.382051282,0.038461538,0.141025641,0.051282051,0.094871795,-0.187179487,-0.148717949,2.270507813,0.09205234,3.881835938,0.050967404,5.859375,0.020908756,109
0.808176872,0.359397243,0.358864719,0.665,0.444701223,0.555298777,0.444042302,0.000658921,0.116666667,0.321666667,0.34,0.018333333,0.206666667,0.262853875,0.144357839,1.105837672,0.175438597,0.483709273,0.511278196,0.027568922,0.056666667,0.156666667,0.218333333,0.233333333,-0.96007453,0.12758965,-0.832484881,0.023333333,0.09,0.085213033,0.235588972,0.328320802,0.350877193,0.035087719,0.135338346,0.050125313,0.100250627,-0.155388471,-0.160401003,5.786132813,0.024913641,7.177734375,0.016003685,9.008789063,0.007366211,109
0.845213586,0.414730581,0.394115375,0.646666667,0.490681394,0.509318606,0.466290866,0.024390528,0.118333333,0.3,0.355,0.055,0.208333333,0.261739556,0.14000406,1.421933419,0.182989691,0.463917526,0.548969072,0.085051546,0.058333333,0.158333333,0.218333333,0.228333333,-0.968936628,0.116656219,-0.85228041,0.025,0.091666667,0.090206186,0.244845361,0.337628866,0.353092784,0.038659794,0.141752577,0.051546392,0.103092784,-0.12628866,-0.195876289,2.34375,0.093354353,6.005859375,0.023474513,7.543945313,0.015219275,109
0.87407646,0.384137586,0.380780781,0.64,0.439478241,0.560521759,0.43563784,0.003840402,0.116666667,0.315,0.346666667,0.031666667,0.206666667,0.293876663,0.133474212,1.309559951,0.182291667,0.4921875,0.541666667,0.049479167,0.056666667,0.16,0.22,0.231666667,-0.949414908,0.108612015,-0.840802894,0.023333333,0.09,0.088541667,0.25,0.34375,0.361979167,0.036458333,0.140625,0.052083333,0.109375,-0.1484375,-0.1796875,5.932617188,0.023642906,9.448242188,0.004544227,11.42578125,0.002624679,109
0.900824625,0.385668491,0.385370656,0.641666667,0.428128273,0.571871727,0.427797648,0.000330626,0.118333333,0.328333333,0.343333333,0.015,0.205,0.279889237,0.131361122,1.292743547,0.184415584,0.511688312,0.535064935,0.023376623,0.058333333,0.16,0.333333333,0.44,-0.962492308,0.117916131,-0.844576178,0.025,0.091666667,0.090909091,0.249350649,0.51948052,0.685714286,0.038961039,0.142857143,0.051948052,0.106493507,0.007792208,0.150649351,5.932617188,0.025975738,9.448242188,0.005561829,11.35253906,0.002874508,109
0.916322098,0.399161086,0.392231896,0.623333333,0.4356122,0.5643878,0.428050242,0.007561958,0.116666667,0.316666667,0.355,0.038333333,0.203333333,0.266339475,0.127320586,1.487556841,0.187165775,0.50802139,0.569518717,0.061497326,0.056666667,0.158333333,0.225,0.241666667,-0.965253328,0.150972927,-0.814280401,0.023333333,0.09,0.090909091,0.254010695,0.360962567,0.387700535,0.037433155,0.144385027,0.053475936,0.109625668,-0.147058824,-0.181818182,2.490234375,0.106083356,6.15234375,0.030987799,7.836914063,0.016376622,109
0.928594493,0.453258375,0.44440599,0.598333333,0.48811228,0.51188772,0.478579179,0.009533101,0.116666667,0.308333333,0.35,0.041666667,0.22,0.26247073,0.125637905,1.825201511,0.194986072,0.515320334,0.584958217,0.069637883,0.058333333,0.158333333,0.326666667,0.433333333,-0.987870151,0.141319523,-0.846550628,0.025,0.091666667,0.097493036,0.264623955,0.545961003,0.724233983,0.04178273,0.153203343,0.055710306,0.111420613,0.030640669,0.139275766,2.63671875,0.112614849,6.372070313,0.027193793,8.349609375,0.012621565,109
0.926656925,0.467704128,0.464282519,0.59,0.504721991,0.495278009,0.501029568,0.003692422,0.116666667,0.315,0.345,0.03,0.31,0.268618128,0.125900604,1.90899644,0.197740113,0.533898305,0.584745763,0.050847458,0.058333333,0.156666667,0.22,0.235,-0.963720839,0.136310163,-0.827410676,0.025,0.091666667,0.098870057,0.265536723,0.372881356,0.398305085,0.042372881,0.155367232,0.056497175,0.110169492,-0.161016949,-0.186440678,2.63671875,0.114937856,6.4453125,0.025984797,8.49609375,0.011099884,109
0.931384881,0.510021137,0.509988867,0.593333333,0.547594391,0.452405609,0.547559744,3.46E-05,0.116666667,0.326666667,0.333333333,0.006666667,0.345,0.25316377,0.125261499,1.961619757,0.196629214,0.550561798,0.561797753,0.011235955,0.058333333,0.155,0.213333333,0.243333333,-0.976584916,0.137925898,-0.838659018,0.025,0.091666667,0.098314607,0.261235955,0.359550562,0.41011236,0.042134831,0.154494382,0.056179775,0.106741573,-0.191011236,-0.151685393,2.63671875,0.117836468,4.321289063,0.055637231,6.4453125,0.026803892,109
0.935366848,0.549868729,0.547332063,0.603333333,0.587864249,0.412135751,0.5851523,0.002711948,0.116666667,0.315,0.343333333,0.028333333,0.373333333,0.247899206,0.124728246,2.114879728,0.193370166,0.522099448,0.569060774,0.046961326,0.056666667,0.153333333,0.21,0.241666667,-0.969310182,0.138767933,-0.83054225,0.023333333,0.09,0.093922652,0.254143646,0.348066298,0.400552486,0.038674033,0.149171271,0.055248619,0.104972376,-0.174033149,-0.168508287,2.563476563,0.122342711,4.321289063,0.059324474,6.225585938,0.028221001,109
0.958216754,0.569748148,0.569723453,0.608333333,0.594592138,0.405407862,0.594566366,2.58E-05,0.116666667,0.325,0.33,0.005,0.368333333,0.258604737,0.121753942,2.046999334,0.191780822,0.534246575,0.542465753,0.008219178,0.058333333,0.153333333,0.206666667,0.245,-0.987523612,0.150713959,-0.836809653,0.025,0.091666667,0.095890411,0.252054795,0.339726027,0.402739726,0.04109589,0.150684932,0.054794521,0.101369863,-0.194520548,-0.139726027,2.490234375,0.118821262,4.174804688,0.057591527,6.15234375,0.025464514,109
0.830315551,0.438446355,0.427234618,0.643333333,0.528047866,0.471952134,0.514544883,0.013502984,0.115,0.3,0.345,0.045,0.328333333,0.244985148,0.138501561,1.469652587,0.178756477,0.466321244,0.53626943,0.069948187,0.056666667,0.151666667,0.21,0.241666667,-0.989082916,0.18482462,-0.804258296,0.023333333,0.09,0.088082902,0.235751295,0.326424871,0.375647668,0.03626943,0.139896373,0.051813472,0.095854922,-0.139896373,-0.160621762,2.34375,0.09743757,3.955078125,0.061794806,5.932617188,0.024562867,109
0.837951127,0.423034646,0.422449109,0.655,0.504844056,0.495155944,0.504145284,0.000698773,0.115,0.316666667,0.333333333,0.016666667,0.301666667,0.260434951,0.137239508,1.315133615,0.175572519,0.48346056,0.508905852,0.025445293,0.056666667,0.153333333,0.208333333,0.241666667,-0.976198941,0.15587106,-0.820327881,0.023333333,0.09,0.086513995,0.234096692,0.318066158,0.368956743,0.03562341,0.13740458,0.050890585,0.096692112,-0.165394402,-0.139949109,3.735351563,0.060137434,5.786132813,0.022420567,7.470703125,0.012927289,109
0.888938202,0.459033996,0.457677499,0.648333333,0.516384599,0.483615402,0.514858624,0.001525975,0.116666667,0.318333333,0.341666667,0.023333333,0.321666667,0.244090426,0.131242719,1.496849988,0.179948586,0.491002571,0.526992288,0.035989717,0.056666667,0.153333333,0.215,0.241666667,-0.968344686,0.150340514,-0.818004172,0.023333333,0.09,0.087403599,0.236503856,0.331619537,0.372750643,0.035989717,0.138817481,0.051413882,0.097686375,-0.159383033,-0.154241645,2.270507813,0.104808871,3.955078125,0.066599465,5.859375,0.028868777,109
0.925362203,0.479474484,0.479224756,0.635,0.518147901,0.481852099,0.517878031,0.00026987,0.115,0.321666667,0.333333333,0.011666667,0.318333333,0.25872109,0.124275662,1.589418178,0.181102362,0.50656168,0.524934383,0.018372703,0.056666667,0.153333333,0.213333333,0.241666667,-0.952955658,0.142947159,-0.810008498,0.023333333,0.09,0.089238845,0.241469816,0.335958005,0.380577428,0.036745407,0.141732284,0.052493438,0.099737533,-0.170603675,-0.144356955,2.34375,0.102974374,6.005859375,0.02479133,7.690429688,0.012602085,109
0.92375924,0.471873618,0.471722058,0.628333333,0.510818834,0.489181166,0.510654765,0.000164069,0.116666667,0.323333333,0.333333333,0.01,0.31,0.257867086,0.126295534,1.599571587,0.185676393,0.514588859,0.530503979,0.015915119,0.056666667,0.155,0.218333333,0.24,-0.953880721,0.139581606,-0.814299115,0.023333333,0.09,0.090185676,0.24668435,0.347480106,0.381962865,0.037135279,0.143236074,0.053050398,0.103448276,-0.167108753,-0.148541114,2.416992188,0.103519187,6.079101563,0.02670663,7.836914063,0.014177794,109
0.928219587,0.48968149,0.480291381,0.62,0.527549189,0.472450811,0.51743293,0.010116258,0.116666667,0.31,0.348333333,0.038333333,0.328333333,0.25023122,0.12568865,1.802508551,0.188172043,0.5,0.561827957,0.061827957,0.058333333,0.155,0.218333333,0.24,-0.961069079,0.138426568,-0.822642511,0.025,0.091666667,0.094086022,0.25,0.352150538,0.387096774,0.040322581,0.147849462,0.053763441,0.102150538,-0.147849462,-0.174731183,2.490234375,0.108272851,3.955078125,0.065165625,6.15234375,0.027601723,109
0.937153774,0.537494832,0.52563975,0.596666667,0.573539634,0.426460366,0.560889541,0.012650093,0.118333333,0.301666667,0.343333333,0.041666667,0.35,0.256164699,0.126268854,2.121690127,0.198324022,0.505586592,0.575418994,0.069832402,0.056666667,0.155,0.213333333,0.236666667,-0.955919606,0.138150951,-0.817768655,0.023333333,0.091666667,0.094972067,0.259776536,0.357541899,0.396648045,0.039106145,0.153631285,0.055865922,0.106145251,-0.148044693,-0.17877095,2.63671875,0.115011219,4.321289063,0.060412184,6.372070313,0.02658721,109
0.861889485,0.508031347,0.50260601,0.605,0.589439083,0.410560918,0.583144381,0.006294702,0.118333333,0.305,0.34,0.035,0.355,0.256820894,0.137295251,1.917099423,0.195592287,0.504132231,0.561983471,0.05785124,0.058333333,0.153333333,0.206666667,0.24,-0.976592904,0.143666769,-0.832926135,0.023333333,0.091666667,0.096418733,0.253443526,0.341597796,0.396694215,0.038567493,0.151515152,0.05785124,0.101928375,-0.162534435,-0.165289256,2.563476563,0.102607519,4.248046875,0.054443415,6.298828125,0.023184075,109
0.862349089,0.464625345,0.461924236,0.616666667,0.538790323,0.461209677,0.535658055,0.003132268,0.118333333,0.311666667,0.338333333,0.026666667,0.325,0.257954207,0.137222077,1.669312615,0.191891892,0.505405405,0.548648649,0.043243243,0.058333333,0.155,0.211666667,0.236666667,-0.96757383,0.135595781,-0.83197805,0.025,0.091666667,0.094594595,0.251351351,0.343243243,0.383783784,0.040540541,0.148648649,0.054054054,0.102702703,-0.162162162,-0.164864865,2.490234375,0.096092484,6.225585938,0.023012367,7.983398438,0.012059785,109
0.824186133,0.398322316,0.395621802,0.625,0.483291698,0.516708302,0.480015115,0.003276583,0.115,0.308333333,0.335,0.026666667,0.223333333,0.283043483,0.139531588,1.373525227,0.184,0.493333333,0.536,0.042666667,0.056666667,0.153333333,0.211666667,0.233333333,-0.972502872,0.14254212,-0.829960752,0.023333333,0.09,0.090666667,0.245333333,0.338666667,0.373333333,0.037333333,0.144,0.053333333,0.101333333,-0.154666667,-0.162666667,6.225585938,0.019738932,9.9609375,0.003445904,11.93847656,0.002618325,109
0.856504942,0.442386548,0.439147005,0.621666667,0.516502037,0.483497963,0.512719756,0.003782281,0.116666667,0.311666667,0.341666667,0.03,0.316666667,0.244206061,0.136212485,1.579951956,0.18766756,0.501340483,0.549597855,0.048257373,0.056666667,0.153333333,0.213333333,0.24,-0.968834948,0.148369391,-0.820465557,0.023333333,0.09,0.091152815,0.246648794,0.343163539,0.386058981,0.037533512,0.144772118,0.053619303,0.101876676,-0.158176944,-0.163538874,2.490234375,0.101814613,4.1015625,0.061866489,6.15234375,0.028247022,109
0.849531224,0.440679007,0.440673283,0.63,0.518731972,0.481268028,0.518725234,6.74E-06,0.115,0.326666667,0.33,0.003333333,0.318333333,0.252522295,0.135368774,1.468930024,0.182539683,0.518518519,0.523809524,0.005291005,0.056666667,0.15,0.208333333,0.246666667,-0.979027494,0.163229863,-0.81579763,0.023333333,0.09,0.08994709,0.238095238,0.330687831,0.391534392,0.037037037,0.142857143,0.052910053,0.095238095,-0.187830688,-0.132275132,2.34375,0.101631214,4.028320313,0.057845998,6.005859375,0.02526751,109
0.84073412,0.46123285,0.45954343,0.626666667,0.548607269,0.451392731,0.546597811,0.002009458,0.115,0.315,0.34,0.025,0.341666667,0.238492597,0.136785218,1.608951801,0.183510638,0.502659575,0.542553192,0.039893617,0.056666667,0.15,0.21,0.243333333,-0.997432493,0.167767683,-0.829664811,0.025,0.091666667,0.090425532,0.239361702,0.335106383,0.388297872,0.039893617,0.146276596,0.050531915,0.093085106,-0.167553192,-0.154255319,2.416992188,0.104916821,4.1015625,0.059259998,6.079101563,0.026387052,109
0.846899328,0.430122777,0.426300772,0.668333333,0.507879464,0.492120536,0.503366525,0.004512939,0.113333333,0.308333333,0.34,0.031666667,0.306666667,0.231972368,0.133821494,1.310018609,0.16957606,0.461346633,0.50872818,0.047381546,0.056666667,0.15,0.21,0.243333333,-0.982262034,0.172877477,-0.809384557,0.023333333,0.09,0.08478803,0.224438903,0.314214464,0.364089776,0.034912718,0.134663342,0.049875312,0.089775561,-0.14713217,-0.144638404,2.197265625,0.099231087,3.80859375,0.06495375,5.712890625,0.026735977,109
0.886531534,0.412962474,0.412176302,0.643333333,0.465818144,0.534181856,0.464931349,0.000886795,0.113333333,0.325,0.343333333,0.018333333,0.225,0.257724813,0.127839032,1.376541581,0.176165803,0.505181347,0.533678757,0.028497409,0.055,0.151666667,0.211666667,0.248333333,-0.964394067,0.16869632,-0.795697747,0.021666667,0.088333333,0.085492228,0.235751295,0.329015544,0.386010363,0.033678756,0.1373057,0.051813472,0.098445596,-0.176165803,-0.147668394,6.005859375,0.026841027,9.448242188,0.005178424,11.27929688,0.002933098,109
0.911493055,0.434296429,0.433920788,0.641666667,0.476467074,0.523532926,0.476054957,0.000412117,0.115,0.323333333,0.338333333,0.015,0.226666667,0.249626103,0.126166622,1.43174647,0.179220779,0.503896104,0.527272727,0.023376623,0.056666667,0.155,0.22,0.243333333,-0.956597799,0.147810645,-0.808787154,0.023333333,0.09,0.088311688,0.241558442,0.342857143,0.379220779,0.036363636,0.14025974,0.051948052,0.101298701,-0.161038961,-0.148051948,6.005859375,0.028325795,7.543945313,0.016521716,9.448242188,0.006760892,109
0.930776791,0.498553077,0.485943392,0.626666667,0.535631187,0.464368813,0.522083701,0.013547485,0.116666667,0.303333333,0.348333333,0.045,0.333333333,0.237649516,0.125343335,1.79120866,0.186170213,0.484042553,0.555851064,0.071808511,0.058333333,0.155,0.216666667,0.238333333,-0.968203248,0.154941925,-0.813261323,0.023333333,0.091666667,0.093085106,0.247340426,0.345744681,0.380319149,0.037234043,0.146276596,0.055851064,0.10106383,-0.138297872,-0.175531915,2.490234375,0.111210027,4.1015625,0.068387475,6.15234375,0.029731831,109
0.962654226,0.530158795,0.529998486,0.623333333,0.550726087,0.449273913,0.550559559,0.000166528,0.115,0.32,0.33,0.01,0.341666667,0.25283405,0.119461378,1.807359527,0.184491979,0.513368984,0.529411765,0.016042781,0.055,0.153333333,0.211666667,0.241666667,-0.953858604,0.145315857,-0.808542747,0.021666667,0.09,0.088235294,0.245989305,0.339572193,0.387700535,0.034759358,0.144385027,0.053475936,0.101604278,-0.173796791,-0.14171123,2.416992188,0.112126149,4.028320313,0.063977009,6.079101563,0.026704399,109
0.917038747,0.527745475,0.516053854,0.628333333,0.575488742,0.424511258,0.562739421,0.012749321,0.118333333,0.301666667,0.345,0.043333333,0.351666667,0.245281302,0.129038532,1.862631086,0.188328913,0.480106101,0.549071618,0.068965517,0.058333333,0.155,0.21,0.238333333,-0.992165689,0.148016544,-0.844149145,0.025,0.093333333,0.092838196,0.24668435,0.334217507,0.379310345,0.039787798,0.148541114,0.053050398,0.098143236,-0.145888594,-0.169761273,2.416992188,0.107124312,4.1015625,0.06372308,6.079101563,0.025076857,109
0.879506432,0.469005688,0.468999374,0.646666667,0.5332601,0.4667399,0.533252921,7.18E-06,0.115,0.326666667,0.33,0.003333333,0.326666667,0.243548147,0.130755155,1.481070594,0.177835052,0.505154639,0.510309278,0.005154639,0.056666667,0.15,0.206666667,0.246666667,-0.961222087,0.14936992,-0.811852167,0.023333333,0.09,0.087628866,0.231958763,0.319587629,0.381443299,0.036082474,0.139175258,0.051546392,0.092783505,-0.18556701,-0.128865979,2.270507813,0.096451128,5.932617188,0.024139787,7.470703125,0.014774094,109
0.88835703,0.481009792,0.478120898,0.64,0.541459994,0.458540006,0.538208042,0.003251952,0.115,0.313333333,0.34,0.026666667,0.335,0.237737674,0.129452457,1.603365974,0.1796875,0.489583333,0.53125,0.041666667,0.055,0.15,0.206666667,0.241666667,-0.942469457,0.136612912,-0.805856545,0.021666667,0.088333333,0.0859375,0.234375,0.322916667,0.377604167,0.033854167,0.138020833,0.052083333,0.096354167,-0.166666667,-0.153645833,2.34375,0.101222584,3.955078125,0.063939157,6.005859375,0.027693668,109
0.923391868,0.518765717,0.516421202,0.62,0.561804511,0.438195489,0.559265486,0.002539025,0.116666667,0.308333333,0.333333333,0.025,0.338333333,0.255610401,0.126345781,1.80964785,0.188172043,0.497311828,0.537634409,0.040322581,0.055,0.153333333,0.21,0.236666667,-0.94022977,0.13119624,-0.809033531,0.021666667,0.09,0.088709677,0.247311828,0.338709677,0.38172043,0.034946237,0.14516129,0.053763441,0.102150538,-0.158602151,-0.155913979,2.490234375,0.101175648,6.15234375,0.024819991,7.91015625,0.012814099,109
0.85266325,0.433865421,0.433845375,0.635,0.508835606,0.491164394,0.508812095,2.35E-05,0.115,0.32,0.326666667,0.006666667,0.3,0.248002822,0.134871533,1.407131096,0.181102362,0.503937008,0.514435696,0.010498688,0.056666667,0.151666667,0.211666667,0.243333333,-0.977148659,0.158742627,-0.818406032,0.023333333,0.09,0.089238845,0.238845144,0.333333333,0.3832021,0.036745407,0.141732284,0.052493438,0.097112861,-0.170603675,-0.131233596,2.270507813,0.095093532,6.079101563,0.024886553,7.690429688,0.014655137,109
0.826480335,0.434430677,0.429643541,0.635,0.52563946,0.47436054,0.519847264,0.005792197,0.115,0.306666667,0.338333333,0.031666667,0.32,0.241765754,0.139144267,1.464373069,0.181102362,0.482939633,0.532808399,0.049868766,0.056666667,0.151666667,0.211666667,0.24,-0.998206946,0.164189817,-0.83401713,0.023333333,0.09,0.089238845,0.238845144,0.333333333,0.377952756,0.036745407,0.141732284,0.052493438,0.097112861,-0.149606299,-0.154855643,2.34375,0.098214621,4.028320313,0.061507184,6.005859375,0.025846306,109
0.856096615,0.45804671,0.457280167,0.625,0.535040908,0.464959092,0.534145515,0.000895394,0.115,0.316666667,0.335,0.018333333,0.328333333,0.252292379,0.134330633,1.579471415,0.184,0.506666667,0.536,0.029333333,0.058333333,0.15,0.21,0.248333333,-1.008170322,0.195321181,-0.812849141,0.025,0.091666667,0.093333333,0.24,0.336,0.397333333,0.04,0.146666667,0.053333333,0.093333333,-0.170666667,-0.138666667,2.416992188,0.098710969,4.028320313,0.05730184,6.079101563,0.024549812,109
0.83104987,0.427760951,0.427677543,0.645,0.514723564,0.485276436,0.514623199,0.000100365,0.115,0.321666667,0.331666667,0.01,0.316666667,0.257606294,0.138379181,1.365194525,0.178294574,0.49870801,0.514211886,0.015503876,0.056666667,0.15,0.208333333,0.245,-1.005573185,0.180017192,-0.825555992,0.023333333,0.09,0.087855297,0.23255814,0.322997416,0.379844961,0.036175711,0.139534884,0.051679587,0.093023256,-0.175710594,-0.134366925,2.270507813,0.095489043,3.881835938,0.058262998,5.932617188,0.023354823,109
0.86220166,0.451153519,0.450803085,0.66,0.523257539,0.476742461,0.522851098,0.000406441,0.115,0.318333333,0.333333333,0.015,0.318333333,0.241301485,0.133379469,1.381082201,0.174242424,0.482323232,0.505050505,0.022727273,0.056666667,0.15,0.208333333,0.246666667,-0.995362042,0.177812878,-0.817549165,0.023333333,0.09,0.085858586,0.227272727,0.315656566,0.373737374,0.035353535,0.136363636,0.050505051,0.090909091,-0.166666667,-0.131313131,2.124023438,0.098794618,3.881835938,0.062976714,5.786132813,0.025843498,109
0.87811992,0.479292115,0.476180383,0.645,0.545816242,0.454183758,0.542272612,0.00354363,0.113333333,0.31,0.338333333,0.028333333,0.336666667,0.228702734,0.129063617,1.56290907,0.175710594,0.480620155,0.524547804,0.043927649,0.056666667,0.15,0.21,0.241666667,-0.986898574,0.17883338,-0.808065194,0.023333333,0.09,0.087855297,0.23255814,0.325581395,0.374677003,0.036175711,0.139534884,0.051679587,0.093023256,-0.15503876,-0.149870801,2.34375,0.104745498,3.955078125,0.06580938,5.859375,0.028408212,109
0.904094761,0.510639523,0.510158233,0.631666667,0.564807523,0.435192477,0.564275179,0.000532344,0.113333333,0.313333333,0.328333333,0.015,0.341666667,0.245569189,0.125355591,1.683426997,0.179419525,0.496042216,0.519788918,0.023746702,0.055,0.148333333,0.206666667,0.243333333,-0.996226922,0.190839101,-0.80538782,0.023333333,0.09,0.08707124,0.234828496,0.327176781,0.385224274,0.036939314,0.142480211,0.050131926,0.092348285,-0.168865435,-0.134564644,2.416992188,0.103630602,4.028320313,0.062056942,6.005859375,0.025130152,109
0.826423585,0.457162241,0.447419803,0.61,0.553181503,0.446818498,0.541392829,0.011788674,0.115,0.3,0.343333333,0.043333333,0.34,0.245933568,0.139153821,1.714358402,0.18852459,0.491803279,0.56284153,0.071038251,0.058333333,0.15,0.208333333,0.238333333,-1.026068895,0.180603904,-0.845464991,0.025,0.091666667,0.095628415,0.245901639,0.341530055,0.390710383,0.040983607,0.150273224,0.054644809,0.095628415,-0.150273224,-0.172131148,2.490234375,0.102990938,4.248046875,0.057745848,6.225585938,0.024840047,109
0.821993983,0.440828239,0.440378844,0.605,0.536291321,0.463708679,0.535744608,0.000546713,0.113333333,0.316666667,0.331666667,0.015,0.331666667,0.263577422,0.137876111,1.612786241,0.187327824,0.523415978,0.548209366,0.024793388,0.058333333,0.148333333,0.206666667,0.246666667,-1.047925513,0.211262752,-0.836662761,0.025,0.091666667,0.096418733,0.245179063,0.341597796,0.407713499,0.041322314,0.151515152,0.055096419,0.093663912,-0.181818182,-0.140495868,2.490234375,0.098773109,4.174804688,0.051242391,6.225585938,0.022518216,109
0.782229827,0.398874116,0.396995407,0.616666667,0.509919338,0.490080662,0.507517603,0.002401735,0.113333333,0.313333333,0.338333333,0.025,0.311666667,0.264272023,0.144884955,1.433080655,0.183783784,0.508108108,0.548648649,0.040540541,0.056666667,0.146666667,0.205,0.246666667,-1.04735442,0.215655839,-0.831698581,0.025,0.091666667,0.091891892,0.237837838,0.332432432,0.4,0.040540541,0.148648649,0.051351351,0.089189189,-0.175675676,-0.148648649,2.416992188,0.092686927,4.028320313,0.052043465,6.15234375,0.022338941,109
0.77254656,0.386751331,0.381856244,0.616666667,0.5006188,0.4993812,0.494282498,0.006336301,0.113333333,0.306666667,0.34,0.033333333,0.236666667,0.256855623,0.146700975,1.397896378,0.183783784,0.497297297,0.551351351,0.054054054,0.058333333,0.148333333,0.21,0.245,-1.060997709,0.226152139,-0.83484557,0.025,0.091666667,0.094594595,0.240540541,0.340540541,0.397297297,0.040540541,0.148648649,0.054054054,0.091891892,-0.156756757,-0.154054054,2.416992188,0.09362288,4.1015625,0.054766582,6.15234375,0.023845583,109
0.785569603,0.425365159,0.413873642,0.605,0.541473547,0.458526453,0.526845286,0.014628262,0.113333333,0.298333333,0.343333333,0.045,0.333333333,0.249104353,0.14426899,1.625599335,0.187327824,0.493112948,0.567493113,0.074380165,0.058333333,0.148333333,0.208333333,0.241666667,-1.069745177,0.244938856,-0.824806322,0.025,0.093333333,0.096418733,0.245179063,0.344352617,0.399449036,0.041322314,0.154269973,0.055096419,0.090909091,-0.148760331,-0.168044077,2.490234375,0.096308825,4.248046875,0.055262272,6.298828125,0.023684598,109
0.801753152,0.410700153,0.407603692,0.611666667,0.51225262,0.48774738,0.508390508,0.003862112,0.111666667,0.306666667,0.336666667,0.03,0.313333333,0.260761714,0.139278114,1.4934551,0.182561308,0.501362398,0.550408719,0.049046322,0.058333333,0.146666667,0.206666667,0.243333333,-1.083253086,0.248034406,-0.83521868,0.025,0.091666667,0.095367847,0.239782016,0.337874659,0.397820164,0.040871935,0.14986376,0.054495913,0.089918256,-0.163487738,-0.152588556,2.416992188,0.097797061,4.1015625,0.05415868,6.225585938,0.023055011,109
0.793632075,0.397259038,0.395015213,0.616666667,0.500558194,0.499441806,0.497730907,0.002827287,0.111666667,0.311666667,0.336666667,0.025,0.248333333,0.259458455,0.140703319,1.41878228,0.181081081,0.505405405,0.545945946,0.040540541,0.056666667,0.146666667,0.206666667,0.245,-1.071129014,0.233130477,-0.837998538,0.025,0.091666667,0.091891892,0.237837838,0.335135135,0.397297297,0.040540541,0.148648649,0.051351351,0.089189189,-0.17027027,-0.148648649,2.416992188,0.095974189,4.1015625,0.054728663,6.15234375,0.02387843,109
0.781957063,0.396362083,0.391778494,0.616666667,0.506884715,0.493115285,0.501023026,0.005861689,0.111666667,0.303333333,0.338333333,0.035,0.306666667,0.2511138,0.14280409,1.424055388,0.181081081,0.491891892,0.548648649,0.056756757,0.058333333,0.146666667,0.208333333,0.241666667,-1.081394971,0.254104417,-0.827290555,0.025,0.091666667,0.094594595,0.237837838,0.337837838,0.391891892,0.040540541,0.148648649,0.054054054,0.089189189,-0.154054054,-0.156756757,2.416992188,0.097049455,4.1015625,0.056776159,6.15234375,0.024779,109
0.79511485,0.413837351,0.40570697,0.605,0.520474936,0.479525064,0.510249519,0.010225417,0.111666667,0.301666667,0.341666667,0.04,0.323333333,0.258458155,0.140440927,1.571534245,0.184573003,0.49862259,0.564738292,0.066115702,0.058333333,0.146666667,0.208333333,0.241666667,-1.085865552,0.247123862,-0.83874169,0.025,0.091666667,0.096418733,0.242424242,0.344352617,0.399449036,0.041322314,0.151515152,0.055096419,0.090909091,-0.154269973,-0.165289256,2.490234375,0.097404391,4.174804688,0.054839753,6.225585938,0.023513266,109
0.78009848,0.380490387,0.372339832,0.618333333,0.487746608,0.512253393,0.477298497,0.01044811,0.11,0.301666667,0.341666667,0.04,0.223333333,0.268518007,0.141007838,1.375266459,0.177897574,0.48787062,0.552560647,0.064690027,0.056666667,0.146666667,0.206666667,0.24,-1.080630007,0.230252829,-0.850377177,0.025,0.091666667,0.091644205,0.237196766,0.334231806,0.388140162,0.040431267,0.148247978,0.051212938,0.088948787,-0.153638814,-0.164420485,2.416992188,0.092561071,3.955078125,0.055580748,6.15234375,0.021369336,109
0.795928403,0.36799185,0.36407983,0.628333333,0.462342904,0.537657096,0.457427865,0.004915039,0.111666667,0.308333333,0.341666667,0.033333333,0.211666667,0.265229642,0.140297376,1.283692498,0.177718833,0.49071618,0.543766578,0.053050398,0.056666667,0.146666667,0.21,0.243333333,-1.057159271,0.235971049,-0.821188222,0.025,0.091666667,0.090185676,0.233421751,0.334217507,0.387267905,0.039787798,0.145888594,0.050397878,0.087533157,-0.156498674,-0.156498674,2.34375,0.092215965,6.079101563,0.024479684,7.836914063,0.013064077,109
0.804375918,0.390873487,0.374108176,0.618333333,0.485933851,0.51406615,0.465091219,0.020842632,0.11,0.291666667,0.343333333,0.051666667,0.203333333,0.250496347,0.136751981,1.421358134,0.177897574,0.471698113,0.555256065,0.083557951,0.055,0.146666667,0.213333333,0.231666667,-1.043494029,0.209369332,-0.834124697,0.023333333,0.09,0.088948787,0.237196766,0.345013477,0.374663073,0.037735849,0.145552561,0.051212938,0.091644205,-0.126684636,-0.180592992,2.416992188,0.095474438,4.028320313,0.063129372,6.15234375,0.026133551,109
0.839066697,0.404208725,0.395464046,0.606666667,0.481736108,0.518263892,0.471314196,0.010421912,0.111666667,0.305,0.346666667,0.041666667,0.216666667,0.265513526,0.133084375,1.554648943,0.184065934,0.502747253,0.571428571,0.068681319,0.056666667,0.15,0.215,0.243333333,-1.044415858,0.215955597,-0.828460261,0.025,0.09,0.093406593,0.247252747,0.354395604,0.401098901,0.041208791,0.148351648,0.052197802,0.098901099,-0.148351648,-0.17032967,2.490234375,0.098227937,6.298828125,0.025014054,8.203125,0.011148664,109
0.825617063,0.394059429,0.377409492,0.605,0.4772908,0.5227092,0.457124142,0.020166658,0.111666667,0.296666667,0.348333333,0.051666667,0.205,0.267411712,0.135252373,1.535296476,0.184573003,0.490358127,0.575757576,0.085399449,0.056666667,0.151666667,0.216666667,0.235,-1.037934965,0.207421877,-0.830513088,0.023333333,0.091666667,0.093663912,0.250688705,0.358126722,0.388429752,0.038567493,0.151515152,0.055096419,0.099173554,-0.132231405,-0.187327824,2.563476563,0.097153719,6.298828125,0.024099535,8.203125,0.011242406,109
0.847532298,0.416972304,0.401648735,0.606666667,0.491983969,0.508016031,0.47390375,0.018080219,0.113333333,0.295,0.345,0.05,0.21,0.259183115,0.133721551,1.593524729,0.186813187,0.486263736,0.568681319,0.082417582,0.056666667,0.15,0.22,0.231666667,-1.03151969,0.200970527,-0.830549163,0.025,0.091666667,0.093406593,0.247252747,0.362637363,0.381868132,0.041208791,0.151098901,0.052197802,0.096153846,-0.123626374,-0.186813187,2.490234375,0.105357598,4.174804688,0.062405096,6.298828125,0.026429142,109
0.858666223,0.474007931,0.451837005,0.6,0.552028155,0.447971845,0.526207964,0.025820192,0.113333333,0.29,0.345,0.055,0.34,0.250199623,0.131987646,1.858854631,0.188888889,0.483333333,0.575,0.091666667,0.058333333,0.15,0.218333333,0.23,-1.058485048,0.209716441,-0.848768607,0.025,0.091666667,0.097222222,0.25,0.363888889,0.383333333,0.041666667,0.152777778,0.055555556,0.097222222,-0.119444444,-0.191666667,2.563476563,0.109417938,4.248046875,0.061640645,6.372070313,0.025311901,109
0.871741549,0.470504185,0.466139003,0.603333333,0.539728989,0.460271011,0.534721562,0.005007427,0.111666667,0.306666667,0.34,0.033333333,0.34,0.256419581,0.12809607,1.786724752,0.185082873,0.508287293,0.563535912,0.055248619,0.056666667,0.148333333,0.21,0.241666667,-1.065272748,0.23400138,-0.831271368,0.025,0.091666667,0.093922652,0.245856354,0.348066298,0.400552486,0.041436464,0.151933702,0.052486188,0.093922652,-0.160220995,-0.162983425,2.490234375,0.110622087,4.248046875,0.058145052,6.225585938,0.025440081,109
0.856156392,0.454057706,0.452525134,0.611666667,0.530344351,0.469655649,0.528554291,0.00179006,0.111666667,0.313333333,0.336666667,0.023333333,0.335,0.25418968,0.130427884,1.651118931,0.182561308,0.51226158,0.550408719,0.038147139,0.056666667,0.148333333,0.21,0.245,-1.053830865,0.21708329,-0.836747575,0.025,0.091666667,0.092643052,0.242506812,0.343324251,0.400544959,0.040871935,0.14986376,0.051771117,0.092643052,-0.16893733,-0.14986376,2.490234375,0.10784103,4.174804688,0.057599871,6.15234375,0.025559458,109
0.841949887,0.450187592,0.447291627,0.628333333,0.534696421,0.465303579,0.531256829,0.003439593,0.111666667,0.311666667,0.341666667,0.03,0.34,0.245204485,0.132628638,1.570421831,0.177718833,0.49602122,0.543766578,0.047745358,0.056666667,0.148333333,0.208333333,0.245,-1.04575652,0.215755859,-0.830000662,0.025,0.09,0.090185676,0.236074271,0.331564987,0.389920424,0.039787798,0.143236074,0.050397878,0.092838196,-0.164456233,-0.153846154,2.34375,0.105726995,4.028320313,0.05973213,6.005859375,0.025844141,109
0.861013219,0.494185861,0.48035613,0.618333333,0.573958506,0.426041494,0.557896347,0.016062159,0.111666667,0.295,0.343333333,0.048333333,0.358333333,0.236279679,0.129692163,1.797039493,0.180592992,0.477088949,0.555256065,0.078167116,0.056666667,0.146666667,0.208333333,0.236666667,-1.035483449,0.203869152,-0.831614297,0.023333333,0.09,0.091644205,0.237196766,0.336927224,0.382749326,0.037735849,0.145552561,0.053908356,0.091644205,-0.140161725,-0.172506739,2.416992188,0.111683446,4.174804688,0.063837914,6.079101563,0.027403811,109
0.890568587,0.504058493,0.501365001,0.623333333,0.565996264,0.434003736,0.562971801,0.003024464,0.113333333,0.31,0.338333333,0.028333333,0.355,0.253470952,0.127259523,1.768626292,0.181818182,0.497326203,0.542780749,0.045454545,0.056666667,0.148333333,0.208333333,0.245,-1.026252769,0.209530019,-0.81672275,0.023333333,0.091666667,0.090909091,0.237967914,0.334224599,0.393048128,0.037433155,0.147058824,0.053475936,0.090909091,-0.163101604,-0.14973262,2.416992188,0.110662783,4.1015625,0.060831675,6.005859375,0.025767274,109
0.893772474,0.498863577,0.493705292,0.636666667,0.558155002,0.441844998,0.55238364,0.005771363,0.111666667,0.306666667,0.341666667,0.035,0.348333333,0.241409218,0.124938583,1.691062973,0.17539267,0.481675393,0.536649215,0.054973822,0.056666667,0.148333333,0.206666667,0.243333333,-1.01725085,0.193636385,-0.823614465,0.023333333,0.09,0.089005236,0.232984293,0.32460733,0.382198953,0.036649215,0.141361257,0.052356021,0.091623037,-0.157068063,-0.154450262,2.34375,0.109071751,4.028320313,0.063983384,5.932617188,0.026411647,109
0.910269345,0.489701232,0.487790507,0.638333333,0.537973991,0.462026009,0.535874914,0.002099077,0.113333333,0.31,0.335,0.025,0.333333333,0.250422638,0.124505273,1.614399666,0.177545692,0.485639687,0.524804178,0.039164491,0.056666667,0.15,0.21,0.241666667,-1.004060402,0.184571261,-0.819489141,0.023333333,0.09,0.088772846,0.234986945,0.328981723,0.378590078,0.036553525,0.140992167,0.052219321,0.093994778,-0.156657963,-0.146214099,2.34375,0.109263418,3.955078125,0.065129715,5.932617188,0.026513889,109
0.884292754,0.496935504,0.483969871,0.626666667,0.561958132,0.438041868,0.547295982,0.01466215,0.113333333,0.298333333,0.345,0.046666667,0.351666667,0.239447001,0.128162685,1.764268062,0.180851064,0.47606383,0.550531915,0.074468085,0.056666667,0.15,0.211666667,0.238333333,-1.00476278,0.184051525,-0.820711255,0.023333333,0.09,0.090425532,0.239361702,0.337765957,0.380319149,0.037234043,0.143617021,0.053191489,0.095744681,-0.138297872,-0.170212766,2.416992188,0.109782657,4.1015625,0.065003166,6.079101563,0.026856972,109
0.893881058,0.497554821,0.497538335,0.621666667,0.556623072,0.443376928,0.556604629,1.84E-05,0.111666667,0.323333333,0.328333333,0.005,0.35,0.246232479,0.124923406,1.696209616,0.179624665,0.520107239,0.528150134,0.008042895,0.055,0.148333333,0.208333333,0.246666667,-0.998274476,0.196542935,-0.801731541,0.021666667,0.088333333,0.08847185,0.238605898,0.335120643,0.396782842,0.034852547,0.142091153,0.053619303,0.096514745,-0.184986595,-0.131367292,2.416992188,0.107754657,4.1015625,0.059688865,6.079101563,0.026741393,109
0.877435282,0.495702643,0.493751284,0.62,0.564944963,0.435055037,0.562721028,0.002223935,0.113333333,0.313333333,0.338333333,0.025,0.353333333,0.240758197,0.129164322,1.759891041,0.182795699,0.505376344,0.545698925,0.040322581,0.056666667,0.15,0.208333333,0.246666667,-0.994930443,0.171506591,-0.823423852,0.023333333,0.09,0.091397849,0.241935484,0.336021505,0.397849462,0.037634409,0.14516129,0.053763441,0.096774194,-0.169354839,-0.147849462,2.490234375,0.105174836,4.1015625,0.057276762,6.079101563,0.026131005,109
0.864518078,0.515768969,0.513663018,0.611666667,0.59659709,0.40340291,0.594161107,0.002435983,0.115,0.308333333,0.336666667,0.028333333,0.37,0.235784458,0.133022088,1.875523525,0.188010899,0.504087194,0.550408719,0.046321526,0.056666667,0.15,0.208333333,0.243333333,-0.996042059,0.193864106,-0.802177953,0.025,0.091666667,0.092643052,0.245231608,0.340599455,0.397820164,0.040871935,0.14986376,0.051771117,0.095367847,-0.163487738,-0.152588556,2.490234375,0.109762819,4.248046875,0.058504006,6.15234375,0.026816943,109
0.887943139,0.566757086,0.560859485,0.596666667,0.638280833,0.361719167,0.631638964,0.006641868,0.116666667,0.305,0.34,0.035,0.385,0.24490457,0.131389795,2.208144491,0.195530726,0.511173184,0.569832402,0.058659218,0.058333333,0.15,0.203333333,0.243333333,-1.013791173,0.167244385,-0.846546788,0.025,0.093333333,0.097765363,0.251396648,0.340782123,0.407821229,0.041899441,0.156424581,0.055865922,0.094972067,-0.170391062,-0.162011173,2.563476563,0.111279084,4.321289063,0.053945906,6.298828125,0.024579198,109
0.776814297,0.417366934,0.41059217,0.616666667,0.537280191,0.462719809,0.528558977,0.008721214,0.113333333,0.303333333,0.34,0.036666667,0.33,0.250407524,0.145895015,1.508555181,0.183783784,0.491891892,0.551351351,0.059459459,0.056666667,0.146666667,0.205,0.241666667,-1.020411655,0.191343992,-0.829067663,0.023333333,0.09,0.091891892,0.237837838,0.332432432,0.391891892,0.037837838,0.145945946,0.054054054,0.091891892,-0.15945946,-0.15945946,2.490234375,0.092264269,4.1015625,0.054079286,6.15234375,0.023463254,109
0.776003305,0.4034173,0.400621517,0.611666667,0.51986544,0.48013456,0.516262643,0.003602797,0.113333333,0.308333333,0.335,0.026666667,0.316666667,0.264826103,0.146047488,1.458134819,0.185286104,0.504087194,0.547683924,0.04359673,0.056666667,0.148333333,0.206666667,0.243333333,-1.045469715,0.197340227,-0.848129489,0.025,0.091666667,0.092643052,0.242506812,0.337874659,0.397820164,0.040871935,0.14986376,0.051771117,0.092643052,-0.166212534,-0.14986376,2.490234375,0.089176614,6.225585938,0.02074787,8.129882813,0.00974369,109
0.760389805,0.381272891,0.376330858,0.618333333,0.501417679,0.498582321,0.494918337,0.006499342,0.111666667,0.301666667,0.335,0.033333333,0.233333333,0.257497654,0.146854503,1.345669028,0.180592992,0.48787062,0.541778976,0.053908356,0.056666667,0.148333333,0.206666667,0.236666667,-1.015716331,0.169711324,-0.846005007,0.023333333,0.09,0.091644205,0.239892183,0.334231806,0.382749326,0.037735849,0.145552561,0.053908356,0.094339623,-0.153638814,-0.15902965,2.416992188,0.08724973,6.15234375,0.021221953,7.91015625,0.011764093,109
0.770350184,0.399769305,0.391014937,0.625,0.518944907,0.481055093,0.507580767,0.01136414,0.113333333,0.301666667,0.343333333,0.041666667,0.318333333,0.24061231,0.14711924,1.419299307,0.181333333,0.482666667,0.549333333,0.066666667,0.058333333,0.148333333,0.21,0.241666667,-1.054741144,0.216326743,-0.838414401,0.025,0.091666667,0.093333333,0.237333333,0.336,0.386666667,0.04,0.146666667,0.053333333,0.090666667,-0.146666667,-0.162666667,2.416992188,0.093052903,4.1015625,0.056089866,6.079101563,0.024045391,109
0.818696304,0.45748234,0.444821602,0.598333333,0.558793703,0.441206297,0.543329193,0.01546451,0.113333333,0.295,0.34,0.045,0.341666667,0.251521565,0.138431471,1.770899379,0.189415042,0.493036212,0.568245125,0.075208914,0.056666667,0.148333333,0.208333333,0.236666667,-1.019246185,0.18423718,-0.835009005,0.023333333,0.09,0.094707521,0.247910864,0.348189415,0.395543176,0.038997214,0.150417827,0.055710306,0.097493036,-0.144846797,-0.17270195,2.563476563,0.099600598,4.248046875,0.055598321,6.372070313,0.024053046,109
0.821848626,0.431071303,0.423433213,0.601666667,0.524514235,0.475485765,0.515220443,0.009293792,0.115,0.305,0.343333333,0.038333333,0.328333333,0.272004501,0.139928445,1.668663109,0.191135734,0.506925208,0.570637119,0.063711911,0.058333333,0.15,0.206666667,0.24,-1.034711062,0.193120448,-0.841590614,0.025,0.093333333,0.096952909,0.249307479,0.343490305,0.398891967,0.041551247,0.155124654,0.055401662,0.094182825,-0.163434903,-0.171745152,2.563476563,0.099167292,6.298828125,0.021942786,8.422851563,0.009319359,109
0.830104119,0.418395197,0.411180477,0.596666667,0.504027372,0.495972628,0.495336028,0.008691344,0.113333333,0.306666667,0.345,0.038333333,0.24,0.261902007,0.136529058,1.662497473,0.189944134,0.51396648,0.578212291,0.06424581,0.056666667,0.151666667,0.21,0.241666667,-1.021440135,0.157544427,-0.863895709,0.025,0.091666667,0.094972067,0.254189944,0.351955307,0.405027933,0.041899441,0.153631285,0.053072626,0.100558659,-0.162011173,-0.173184358,2.63671875,0.102029325,6.372070313,0.022548556,8.422851563,0.00990183,109
0.841222365,0.464772353,0.444716489,0.588333333,0.55249643,0.44750357,0.528655095,0.023841335,0.115,0.295,0.348333333,0.053333333,0.343333333,0.25279431,0.136705828,1.936551473,0.195467422,0.501416431,0.592067989,0.090651558,0.056666667,0.151666667,0.216666667,0.233333333,-1.009184095,0.176089511,-0.833094585,0.025,0.091666667,0.09631728,0.257790368,0.368271955,0.396600567,0.042492918,0.155807365,0.053824363,0.101983003,-0.133144476,-0.195467422,2.63671875,0.106232036,4.321289063,0.05726111,6.518554688,0.026453606,109
0.854336729,0.472213717,0.471733113,0.585,0.552725524,0.447274476,0.552162978,0.000562546,0.113333333,0.321666667,0.338333333,0.016666667,0.355,0.25863663,0.132656515,1.914379932,0.193732194,0.54985755,0.578347578,0.028490028,0.056666667,0.146666667,0.2,0.245,-1.006444901,0.170935111,-0.83550979,0.023333333,0.09,0.096866097,0.250712251,0.341880342,0.418803419,0.03988604,0.153846154,0.056980057,0.096866097,-0.207977208,-0.15954416,2.63671875,0.110945375,4.39453125,0.045903413,6.4453125,0.023665041,109
0.791636319,0.414752688,0.400050425,0.585,0.523918216,0.476081784,0.505346224,0.018571992,0.11,0.298333333,0.346666667,0.048333333,0.333333333,0.26207318,0.138952695,1.740221069,0.188034188,0.50997151,0.592592593,0.082621083,0.055,0.146666667,0.206666667,0.238333333,-1.004339493,0.185088096,-0.819251398,0.021666667,0.088333333,0.094017094,0.250712251,0.353276353,0.407407407,0.037037037,0.150997151,0.056980057,0.0997151,-0.156695157,-0.185185185,2.63671875,0.098600306,6.4453125,0.022793423,8.569335938,0.008333239,109
0.720176223,0.342507376,0.332097576,0.568333333,0.475588287,0.524411713,0.461133768,0.014454519,0.108333333,0.296666667,0.338333333,0.041666667,0.21,0.26263525,0.150426146,1.489162506,0.190615836,0.521994135,0.595307918,0.073313783,0.051666667,0.145,0.2,0.236666667,-0.932377673,0.190083304,-0.742294369,0.018333333,0.085,0.090909091,0.255131965,0.351906158,0.416422287,0.032258065,0.149560117,0.058651026,0.105571848,-0.170087977,-0.178885631,2.856445313,0.085744993,6.665039063,0.021667982,8.49609375,0.009805694,109
0.723579516,0.324667707,0.299187903,0.551666667,0.448696653,0.551303347,0.413483103,0.03521355,0.11,0.285,0.345,0.06,0.181666667,0.28490872,0.152021993,1.570972776,0.19939577,0.516616314,0.625377644,0.108761329,0.055,0.148333333,0.31,0.44,-1.026976876,0.142608394,-0.884368482,0.023333333,0.088333333,0.099697885,0.268882175,0.561933535,0.797583082,0.042296073,0.160120846,0.057401813,0.108761329,0.045317221,0.172205438,3.002929688,0.089927899,6.884765625,0.019588952,9.008789063,0.008283871,109
0.772457351,0.354377746,0.328603216,0.558333333,0.458766747,0.541233253,0.425399818,0.033366929,0.113333333,0.285,0.343333333,0.058333333,0.181666667,0.2878298,0.146717917,1.648268586,0.202985075,0.510447761,0.614925373,0.104477612,0.056666667,0.155,0.31,0.421666667,-1.011215753,0.10825708,-0.902958673,0.025,0.09,0.101492537,0.27761194,0.555223881,0.755223881,0.044776119,0.16119403,0.056716418,0.11641791,0.044776119,0.140298508,3.002929688,0.095298463,7.03125,0.018918435,9.08203125,0.007534919,109
0.801621859,0.367327379,0.32382734,0.553333333,0.458230243,0.541769758,0.403965207,0.054265036,0.11,0.278333333,0.345,0.066666667,0.175,0.28752453,0.137221807,1.763171418,0.198795181,0.503012048,0.623493976,0.120481928,0.053333333,0.15,0.306666667,0.433333333,-0.9765952,0.105835586,-0.870759614,0.02,0.086666667,0.096385542,0.271084337,0.554216868,0.78313253,0.036144578,0.156626506,0.060240964,0.114457831,0.051204819,0.159638554,3.076171875,0.102374742,6.884765625,0.021991796,8.862304688,0.010145465,109
0.821934008,0.392360856,0.350802974,0.543333333,0.477362966,0.522637034,0.426801874,0.050561093,0.111666667,0.276666667,0.35,0.073333333,0.175,0.28046479,0.135858434,2.029452703,0.205521472,0.509202454,0.644171779,0.134969325,0.055,0.155,0.31,0.411666667,-0.994821194,0.054744142,-0.940077052,0.023333333,0.086666667,0.101226994,0.285276074,0.570552147,0.757668712,0.042944785,0.159509203,0.058282209,0.125766871,0.061349693,0.113496933,3.002929688,0.110073712,7.104492188,0.022915878,9.301757813,0.010079458,109
0.852412139,0.374297981,0.357367664,0.538333333,0.439104471,0.560895529,0.419242814,0.019861657,0.108333333,0.283333333,0.335,0.051666667,0.183333333,0.299258367,0.127090322,1.840809744,0.20123839,0.52631579,0.622291022,0.095975232,0.051666667,0.148333333,0.303333333,0.426666667,-0.960658194,0.109284561,-0.851373632,0.02,0.085,0.095975232,0.275541796,0.563467492,0.792569659,0.037151703,0.157894737,0.058823529,0.117647059,0.037151703,0.170278638,3.002929688,0.109967702,7.03125,0.020596065,9.301757813,0.007880205,109
0.850039694,0.376317582,0.35459035,0.541666667,0.442705893,0.557294107,0.417145638,0.025560255,0.11,0.288333333,0.343333333,0.055,0.183333333,0.286387492,0.129405722,1.897399571,0.203076923,0.532307692,0.633846154,0.101538462,0.053333333,0.151666667,0.31,0.428333333,-0.981830351,0.121843773,-0.859986577,0.021666667,0.088333333,0.098461538,0.28,0.572307692,0.790769231,0.04,0.163076923,0.058461538,0.116923077,0.04,0.156923077,3.002929688,0.111101175,7.03125,0.022915019,9.228515625,0.008839162,109
0.828338554,0.407230184,0.370897336,0.536666667,0.491622879,0.508377122,0.447760561,0.043862317,0.11,0.281666667,0.345,0.063333333,0.19,0.273118081,0.132795944,2.124679223,0.204968944,0.524844721,0.642857143,0.118012422,0.053333333,0.151666667,0.31,0.425,-0.976001261,0.124013602,-0.851987659,0.021666667,0.086666667,0.099378882,0.282608696,0.577639752,0.791925466,0.040372671,0.161490683,0.059006211,0.121118012,0.052795031,0.149068323,2.9296875,0.114856152,7.177734375,0.023579563,9.448242188,0.0096111,109
0.851601769,0.471394905,0.439902831,0.523333333,0.553539133,0.446460868,0.51655932,0.036979812,0.113333333,0.281666667,0.343333333,0.061666667,0.34,0.282784065,0.133082548,2.618860581,0.21656051,0.538216561,0.656050955,0.117834395,0.055,0.151666667,0.308333333,0.413333333,-0.978543656,0.109948015,-0.868595641,0.021666667,0.09,0.105095541,0.289808917,0.589171975,0.789808917,0.041401274,0.171974522,0.063694268,0.117834395,0.050955414,0.133757962,3.002929688,0.119346349,4.98046875,0.042530976,7.32421875,0.021404163,109
0.826212926,0.46210597,0.430470412,0.515,0.55930615,0.44069385,0.521016313,0.038289837,0.11,0.273333333,0.335,0.061666667,0.34,0.292322161,0.133137593,2.567255391,0.213592233,0.530744337,0.650485437,0.1197411,0.056666667,0.148333333,0.298333333,0.41,-1.045935759,0.113421265,-0.932514495,0.023333333,0.09,0.110032363,0.28802589,0.579288026,0.796116505,0.045307443,0.174757282,0.064724919,0.113268608,0.048543689,0.145631068,3.002929688,0.116465068,4.98046875,0.039452336,7.32421875,0.017353216,109
0.800668588,0.455578642,0.425627383,1.08,0.568997771,0.43100223,0.53158996,0.037407811,0.108333333,0.273333333,0.331666667,0.058333333,0.34,0.1240408,0.135303589,0.608791058,0.100308642,0.25308642,0.307098765,0.054012346,0.055,0.145,0.298333333,0.4,-1.065850178,0.159033708,-0.906816469,0.023333333,0.088333333,0.050925926,0.134259259,0.276234568,0.37037037,0.021604938,0.081790123,0.029320988,0.052469136,0.023148148,0.063271605,1.46484375,0.131371338,3.479003906,0.075737806,5.2734375,0.03093119,109
0.760482213,0.366428897,0.35456316,0.553333333,0.481837564,0.518162436,0.466234652,0.015602911,0.108333333,0.285,0.33,0.045,0.201666667,0.289578854,0.142453474,1.640726404,0.195783133,0.515060241,0.596385542,0.081325301,0.055,0.143333333,0.206666667,0.216666667,-1.076515979,0.19028491,-0.88623107,0.023333333,0.088333333,0.09939759,0.259036145,0.373493976,0.391566265,0.042168675,0.159638554,0.057228916,0.09939759,-0.141566265,-0.204819277,2.783203125,0.096041265,6.884765625,0.019257802,9.375,0.007666413,109
0.75583034,0.354681736,0.339674165,0.558333333,0.469261046,0.530738954,0.449405306,0.01985574,0.106666667,0.281666667,0.331666667,0.05,0.191666667,0.278512857,0.141125145,1.564772366,0.191044776,0.504477612,0.594029851,0.089552239,0.055,0.143333333,0.303333333,0.406666667,-1.074852797,0.178248873,-0.896603925,0.021666667,0.088333333,0.098507463,0.256716418,0.543283582,0.728358209,0.03880597,0.158208955,0.059701493,0.098507463,0.03880597,0.134328358,2.783203125,0.093944934,6.811523438,0.02007165,9.008789063,0.008397483,109
0.765212803,0.361212408,0.33848004,0.566666667,0.472041773,0.527958227,0.442334523,0.02970725,0.108333333,0.278333333,0.335,0.056666667,0.185,0.271644342,0.141572819,1.55919025,0.191176471,0.491176471,0.591176471,0.1,0.056666667,0.145,0.303333333,0.401666667,-1.071516061,0.190008287,-0.881507774,0.023333333,0.09,0.1,0.255882353,0.535294118,0.708823529,0.041176471,0.158823529,0.058823529,0.097058824,0.044117647,0.117647059,2.783203125,0.095321677,6.811523438,0.021060762,8.862304688,0.010004814,109
0.800112878,0.39749161,0.366233747,0.556666667,0.496794417,0.503205584,0.457727599,0.039066817,0.108333333,0.275,0.335,0.06,0.188333333,0.2703837,0.135397562,1.793195235,0.194610778,0.494011976,0.601796407,0.107784431,0.055,0.146666667,0.301666667,0.401666667,-1.075594686,0.172115049,-0.903479637,0.023333333,0.09,0.098802395,0.263473054,0.541916168,0.721556886,0.041916168,0.161676647,0.056886228,0.101796407,0.047904192,0.119760479,2.856445313,0.101079352,6.884765625,0.021932396,9.08203125,0.009775158,109
0.816207882,0.380486533,0.36525076,0.558333333,0.466163757,0.533836243,0.447497223,0.018666534,0.106666667,0.281666667,0.33,0.048333333,0.188333333,0.285914039,0.130685661,1.666364377,0.191044776,0.504477612,0.591044776,0.086567164,0.053333333,0.143333333,0.301666667,0.406666667,-1.061267715,0.185613545,-0.87565417,0.021666667,0.088333333,0.095522388,0.256716418,0.540298508,0.728358209,0.03880597,0.158208955,0.056716418,0.098507463,0.035820896,0.137313433,2.856445313,0.099917838,6.811523438,0.021051871,9.008789063,0.008210911,109
0.825679233,0.371347424,0.357940989,0.57,0.449747806,0.550252194,0.433510951,0.016236856,0.108333333,0.285,0.333333333,0.048333333,0.183333333,0.282217226,0.131205109,1.569073622,0.19005848,0.5,0.584795322,0.084795322,0.055,0.145,0.305,0.41,-1.030087499,0.184737899,-0.845349599,0.021666667,0.086666667,0.096491228,0.254385965,0.535087719,0.719298246,0.038011696,0.152046784,0.058479532,0.102339181,0.035087719,0.134502924,2.783203125,0.099385223,6.73828125,0.023465937,8.715820313,0.010177735,109
0.834703135,0.377654096,0.359492426,0.57,0.45244121,0.54755879,0.43068297,0.02175824,0.108333333,0.281666667,0.335,0.053333333,0.178333333,0.273921302,0.129786662,1.607038708,0.19005848,0.494152047,0.587719298,0.093567251,0.055,0.146666667,0.305,0.408333333,-1.032444077,0.166036989,-0.866407088,0.023333333,0.088333333,0.096491228,0.257309942,0.535087719,0.716374269,0.040935673,0.15497076,0.055555556,0.102339181,0.040935673,0.128654971,2.783203125,0.101438325,6.73828125,0.024075685,8.715820313,0.011186041,109
0.837329218,0.408399169,0.376976627,0.565,0.487740258,0.512259742,0.450213152,0.037527105,0.108333333,0.276666667,0.34,0.063333333,0.183333333,0.260978361,0.129379617,1.815107416,0.191740413,0.489675516,0.601769912,0.112094395,0.055,0.146666667,0.303333333,0.403333333,-1.06088971,0.180728113,-0.880161597,0.023333333,0.088333333,0.097345133,0.259587021,0.536873156,0.713864307,0.041297935,0.156342183,0.056047198,0.103244838,0.04719764,0.112094395,2.783203125,0.108384408,6.811523438,0.025195916,8.862304688,0.011851336,109
0.880181588,0.447992747,0.428333716,0.561666667,0.50897764,0.49102236,0.486642441,0.022335199,0.11,0.28,0.333333333,0.053333333,0.208333333,0.274539109,0.124974212,1.962012032,0.195845697,0.498516321,0.59347181,0.09495549,0.055,0.146666667,0.303333333,0.405,-1.047472022,0.171468611,-0.876003411,0.023333333,0.088333333,0.097922849,0.261127596,0.540059347,0.721068249,0.041543027,0.15727003,0.056379822,0.103857567,0.041543027,0.127596439,2.783203125,0.112115504,6.811523438,0.023446954,9.08203125,0.010128692,109
0.879306947,0.433374293,0.421929686,0.561666667,0.492858944,0.507141056,0.479843458,0.013015485,0.106666667,0.285,0.33,0.045,0.208333333,0.269848288,0.121307658,1.870680401,0.189910979,0.507418398,0.587537092,0.080118694,0.053333333,0.145,0.303333333,0.405,-1.027367561,0.177308906,-0.850058654,0.021666667,0.086666667,0.09495549,0.258160237,0.540059347,0.721068249,0.038575668,0.154302671,0.056379822,0.103857567,0.03264095,0.133531157,2.783203125,0.112464146,6.73828125,0.024013704,8.935546875,0.00962991,109
0.869186774,0.430134302,0.421958065,0.575,0.49486982,0.50513018,0.485463053,0.009406767,0.108333333,0.29,0.33,0.04,0.213333333,0.265639505,0.124637577,1.755650214,0.188405797,0.504347826,0.573913044,0.069565217,0.055,0.146666667,0.306666667,0.405,-1.031636501,0.174993856,-0.856642645,0.023333333,0.088333333,0.095652174,0.255072464,0.533333333,0.704347826,0.04057971,0.153623188,0.055072464,0.101449275,0.028985507,0.130434783,2.709960938,0.108448498,6.591796875,0.023860888,8.715820313,0.010377608,109
0.865434554,0.428600424,0.411233633,0.568333333,0.495243022,0.504756978,0.475175889,0.020067134,0.108333333,0.283333333,0.333333333,0.05,0.201666667,0.268102339,0.125177962,1.823831591,0.190615836,0.498533724,0.586510264,0.08797654,0.055,0.145,0.305,0.41,-1.034686235,0.170674436,-0.864011799,0.021666667,0.088333333,0.096774194,0.255131965,0.536656892,0.721407625,0.038123167,0.15542522,0.058651026,0.099706745,0.038123167,0.134897361,2.709960938,0.111989137,6.665039063,0.024099655,8.7890625,0.010980622,109
0.86904947,0.461923459,0.438203038,0.561666667,0.531527231,0.468472769,0.504232559,0.027294672,0.108333333,0.276666667,0.331666667,0.055,0.32,0.259548363,0.124657269,2.008362864,0.192878338,0.492581602,0.590504451,0.097922849,0.055,0.146666667,0.3,0.401666667,-1.042994217,0.171919556,-0.871074662,0.023333333,0.088333333,0.097922849,0.261127596,0.534124629,0.715133531,0.041543027,0.15727003,0.056379822,0.103857567,0.041543027,0.12462908,2.783203125,0.113706556,4.541015625,0.058809235,6.811523438,0.023701547,109
0.88756085,0.469964666,0.455909669,0.555,0.529501348,0.470498652,0.513665817,0.015835531,0.108333333,0.285,0.331666667,0.046666667,0.323333333,0.270360427,0.122057359,2.104319402,0.195195195,0.513513514,0.597597598,0.084084084,0.053333333,0.143333333,0.305,0.403333333,-1.041462158,0.183501378,-0.85796078,0.021666667,0.088333333,0.096096096,0.258258258,0.54954955,0.726726727,0.039039039,0.159159159,0.057057057,0.099099099,0.036036036,0.129129129,2.783203125,0.116886607,4.614257813,0.055681249,6.811523438,0.024251042,109
0.879546319,0.477260251,0.468541921,0.545,0.542620941,0.457379059,0.532708638,0.009912303,0.108333333,0.288333333,0.328333333,0.04,0.331666667,0.263147754,0.12316956,2.202739621,0.198776758,0.529051988,0.602446483,0.073394495,0.055,0.145,0.305,0.406666667,-1.045592402,0.178236003,-0.8673564,0.023333333,0.088333333,0.100917431,0.266055046,0.559633028,0.74617737,0.042813456,0.162079511,0.058103976,0.103975535,0.03058104,0.143730887,2.783203125,0.120153147,4.760742188,0.053596081,6.958007813,0.02423796,109
0.741368477,0.367436649,0.363485836,0.565,0.495619466,0.504380534,0.490290384,0.005329081,0.108333333,0.298333333,0.33,0.031666667,0.228333333,0.262076782,0.146126166,1.563560207,0.191740413,0.528023599,0.584070797,0.056047198,0.055,0.141666667,0.198333333,0.231666667,-1.051620338,0.207299415,-0.844320923,0.023333333,0.088333333,0.097345133,0.250737463,0.351032448,0.410029499,0.041297935,0.156342183,0.056047198,0.09439528,-0.17699115,-0.174041298,2.709960938,0.098244369,4.541015625,0.045428421,6.73828125,0.022364117,109
0.749145339,0.326326925,0.326235151,0.585,0.435598953,0.564401047,0.435476448,0.000122505,0.106666667,0.318333333,0.328333333,0.01,0.208333333,0.269179887,0.142384476,1.271403605,0.182336182,0.544159544,0.561253561,0.017094017,0.053333333,0.14,0.2,0.24,-1.045029911,0.200600233,-0.844429678,0.021666667,0.086666667,0.091168091,0.239316239,0.341880342,0.41025641,0.037037037,0.148148148,0.054131054,0.091168091,-0.202279202,-0.150997151,2.563476563,0.09334731,6.518554688,0.023029611,8.422851563,0.009850948,109
0.915812479,0.07151913,0.071031219,0.873333333,0.07809364,0.92190636,0.077560877,0.000532763,0.165,0.741666667,0.765,0.023333333,0.256666667,0.381454039,0.180167888,0.660176584,0.188931298,0.849236641,0.875954199,0.026717557,0.071666667,0.27,0.365,0.431666667,-0.800860641,-0.176489998,-0.977350638,0.033333333,0.108333333,0.082061069,0.309160305,0.417938931,0.494274809,0.038167939,0.124045802,0.04389313,0.185114504,-0.43129771,-0.381679389,5.639648438,0.011133515,6.884765625,0.009623804,9.375,0.002536086,203
0.849758273,0.064350081,0.06363609,0.838333333,0.075727514,0.924272486,0.074887286,0.000840228,0.156666667,0.711666667,0.738333333,0.026666667,0.24,0.368771149,0.184366156,0.643500815,0.186878728,0.848906561,0.880715706,0.031809145,0.071666667,0.26,0.355,0.42,-0.852348515,-0.162522228,-1.014870744,0.033333333,0.108333333,0.085487078,0.310139165,0.423459245,0.500994036,0.039761431,0.129224652,0.045725646,0.180914513,-0.425447316,-0.37972167,5.932617188,0.010624774,7.250976563,0.008550907,9.887695313,0.001916147,203
0.85570878,0.079412844,0.079012758,0.851666667,0.092803587,0.907196413,0.092336037,0.00046755,0.156666667,0.711666667,0.733333333,0.021666667,0.236666667,0.361197934,0.183084094,0.671094456,0.183953033,0.835616438,0.861056752,0.025440313,0.073333333,0.253333333,0.351666667,0.426666667,-0.868498497,-0.203988943,-1.07248744,0.035,0.11,0.086105675,0.297455969,0.412915851,0.500978474,0.04109589,0.129158513,0.045009785,0.168297456,-0.422700587,-0.360078278,5.786132813,0.00978423,7.104492188,0.007704398,8.276367188,0.005065107,203
0.834189514,0.071994139,0.071523088,0.828333333,0.086304297,0.913695703,0.085739615,0.000564681,0.156666667,0.681666667,0.705,0.023333333,0.238333333,0.377923924,0.187807044,0.583736265,0.189134809,0.822937626,0.85110664,0.028169014,0.07,0.255,0.353333333,0.441666667,-0.850852135,-0.193350621,-1.044202755,0.033333333,0.106666667,0.084507042,0.307847083,0.426559356,0.533199195,0.040241449,0.128772636,0.044265594,0.179074447,-0.39637827,-0.317907445,6.005859375,0.009641506,7.177734375,0.007730463,8.49609375,0.004796826,203
0.874544162,0.139413192,0.130135781,0.796666667,0.15941241,0.84058759,0.148804128,0.010608282,0.155,0.628333333,0.698333333,0.07,0.253333333,0.326126973,0.177235189,1.417761278,0.19456067,0.788702929,0.876569038,0.087866109,0.071666667,0.256666667,0.355,0.456666667,-0.84786235,-0.149336437,-0.997198786,0.033333333,0.108333333,0.089958159,0.322175732,0.445606695,0.573221757,0.041841004,0.135983264,0.048117155,0.186192469,-0.343096234,-0.30334728,3.22265625,0.063173359,4.760742188,0.021307836,6.225585938,0.012665735,203
0.89804874,0.14697366,0.146548234,0.803333333,0.16365889,0.83634111,0.163185167,0.000473724,0.166666667,0.65,0.675,0.025,0.271666667,0.369738351,0.185587551,1.145249301,0.20746888,0.809128631,0.840248963,0.031120332,0.075,0.266666667,0.363333333,0.44,-0.833458616,-0.221706171,-1.055164786,0.036666667,0.113333333,0.093360996,0.331950208,0.452282158,0.547717842,0.045643154,0.141078838,0.047717842,0.190871369,-0.356846473,-0.29253112,3.22265625,0.054634951,4.6875,0.017046591,6.225585938,0.009984347,203
0.780530818,0.163268203,0.160001297,0.776666667,0.209175857,0.790824143,0.204990364,0.004185493,0.153333333,0.585,0.636666667,0.051666667,0.235,0.326560138,0.196447507,1.166201448,0.197424893,0.753218884,0.819742489,0.066523605,0.071666667,0.248333333,0.346666667,0.441666667,-0.87070249,-0.211468409,-1.082170899,0.033333333,0.108333333,0.092274678,0.319742489,0.446351931,0.568669528,0.042918455,0.139484979,0.049356223,0.180257511,-0.306866953,-0.251072961,3.442382813,0.053493918,6.372070313,0.009790529,7.763671875,0.007496325,203
0.779829572,0.08314823,0.082841901,0.783333333,0.106623592,0.893376409,0.106230776,0.000392815,0.151666667,0.638333333,0.66,0.021666667,0.235,0.3829617,0.194486939,0.674174836,0.193617021,0.814893617,0.842553192,0.027659574,0.07,0.246666667,0.345,0.441666667,-0.835707388,-0.236596972,-1.07230436,0.031666667,0.105,0.089361702,0.314893617,0.440425532,0.563829787,0.040425532,0.134042553,0.04893617,0.180851064,-0.374468085,-0.278723404,6.298828125,0.007204436,7.690429688,0.005161691,9.301757813,0.003681344,203
0.788960669,0.078424384,0.077688702,0.773333333,0.099402147,0.900597853,0.098469676,0.000932471,0.155,0.631666667,0.66,0.028333333,0.241666667,0.388265322,0.196460998,0.691979863,0.200431035,0.816810345,0.853448276,0.036637931,0.07,0.251666667,0.345,0.42,-0.843736314,-0.192428845,-1.036165159,0.031666667,0.105,0.090517241,0.325431035,0.44612069,0.543103448,0.040948276,0.135775862,0.049568966,0.189655172,-0.370689655,-0.310344828,6.4453125,0.008457681,7.763671875,0.006205882,9.301757813,0.003262061,203
0.813817013,0.112094465,0.111738143,0.776666667,0.137739152,0.862260849,0.137301312,0.00043784,0.155,0.623333333,0.646666667,0.023333333,0.235,0.368404299,0.190460506,0.862265115,0.199570816,0.802575107,0.832618026,0.030042918,0.07,0.255,0.353333333,0.423333333,-0.843420167,-0.195579944,-1.039000111,0.033333333,0.108333333,0.090128755,0.32832618,0.454935622,0.545064378,0.042918455,0.139484979,0.0472103,0.188841202,-0.347639485,-0.287553648,3.22265625,0.053660494,6.372070313,0.009758179,7.763671875,0.006884429,203
0.823292306,0.11226426,0.100959435,0.781666667,0.136360147,0.863639853,0.122628906,0.013731241,0.151666667,0.61,0.693333333,0.083333333,0.235,0.357333219,0.184219706,1.270916147,0.194029851,0.780383795,0.886993603,0.106609808,0.07,0.251666667,0.343333333,0.41,-0.871851865,-0.192603166,-1.06445503,0.033333333,0.106666667,0.089552239,0.321961621,0.439232409,0.524520256,0.042643923,0.136460554,0.046908316,0.185501066,-0.341151386,-0.362473348,3.295898438,0.057620117,4.760742188,0.019078701,6.298828125,0.010164651,203
0.789286257,0.077919345,0.077689266,0.793333333,0.098721274,0.901278726,0.098429772,0.000291502,0.155,0.648333333,0.666666667,0.018333333,0.235,0.390685568,0.196379956,0.615152722,0.195378151,0.817226891,0.840336135,0.023109244,0.07,0.255,0.353333333,0.433333333,-0.83336477,-0.191961718,-1.025326488,0.031666667,0.105,0.088235294,0.321428571,0.445378151,0.546218487,0.039915966,0.132352941,0.048319328,0.18907563,-0.37184874,-0.294117647,6.372070313,0.008556789,7.470703125,0.006091719,8.935546875,0.003000046,203
0.797221797,0.124372152,0.124214598,0.758333333,0.156006964,0.843993036,0.155809334,0.00019763,0.153333333,0.62,0.635,0.015,0.243333333,0.362613061,0.192334597,1.008422855,0.202197802,0.817582418,0.837362637,0.01978022,0.068333333,0.243333333,0.333333333,0.446666667,-0.832362884,-0.24110483,-1.073467714,0.03,0.105,0.09010989,0.320879121,0.43956044,0.589010989,0.03956044,0.138461539,0.050549451,0.182417582,-0.378021978,-0.248351648,3.369140625,0.052232445,6.518554688,0.008062275,7.983398438,0.005770124,203
0.806624935,0.142507558,0.14111235,0.731666667,0.176671402,0.823328598,0.174941716,0.001729686,0.153333333,0.581666667,0.613333333,0.031666667,0.238333333,0.354032811,0.190092479,1.204289222,0.209567198,0.794988611,0.838268793,0.043280182,0.071666667,0.243333333,0.333333333,0.423333333,-0.874150348,-0.245500349,-1.119650696,0.035,0.108333333,0.097949886,0.332574032,0.455580866,0.578587699,0.047835991,0.148063781,0.050113895,0.184510251,-0.339407745,-0.259681093,3.588867188,0.053224726,5.2734375,0.014527185,6.811523438,0.008382802,203
